,rms0,rms1,rms2,rms3,zc0,zc1,zc2,zc3,mav0,mav1,mav2,mav3,var0,var1,var2,var3,wl0,wl1,wl2,wl3,ssc0,ssc1,ssc2,ssc3,contraction,output
0,0.008707039893694707,0.008707039893694707,0.008707039893694707,0.008707039893694707,61.0,61.0,61.0,61.0,0.006562628324510127,0.006562628324510127,0.006562628324510127,0.006562628324510127,7.581245513946102e-05,7.581245513946102e-05,7.581245513946102e-05,7.581245513946102e-05,1.2360592164212867,1.2360592164212867,1.2360592164212867,1.2360592164212867,93.0,93.0,93.0,93.0,1,4
0,0.01319150215584265,0.01319150215584265,0.01319150215584265,0.01319150215584265,68.0,68.0,68.0,68.0,0.009249720881582735,0.009249720881582735,0.009249720881582735,0.009249720881582735,0.0001739626671869292,0.0001739626671869292,0.0001739626671869292,0.0001739626671869292,2.1738543122865437,2.1738543122865437,2.1738543122865437,2.1738543122865437,99.0,99.0,99.0,99.0,1,2
0,0.032639428723336035,0.032639428723336035,0.032639428723336035,0.032639428723336035,67.0,67.0,67.0,67.0,0.024207774205193294,0.024207774205193294,0.024207774205193294,0.024207774205193294,0.0010653321522286446,0.0010653321522286446,0.0010653321522286446,0.0010653321522286446,4.959089285340134,4.959089285340134,4.959089285340134,4.959089285340134,84.0,84.0,84.0,84.0,1,5
0,0.014992891663070544,0.014992891663070544,0.014992891663070544,0.014992891663070544,91.0,91.0,91.0,91.0,0.011148471451351108,0.011148471451351108,0.011148471451351108,0.011148471451351108,0.00022478116520837046,0.00022478116520837046,0.00022478116520837046,0.00022478116520837046,2.9759564221470103,2.9759564221470103,2.9759564221470103,2.9759564221470103,114.0,114.0,114.0,114.0,1,1
0,0.005668608471122075,0.005668608471122075,0.005668608471122075,0.005668608471122075,73.0,73.0,73.0,73.0,0.003942478006117307,0.003942478006117307,0.003942478006117307,0.003942478006117307,3.213291742654093e-05,3.213291742654093e-05,3.213291742654093e-05,3.213291742654093e-05,0.8684726039909618,0.8684726039909618,0.8684726039909618,0.8684726039909618,94.0,94.0,94.0,94.0,1,6
0,0.004510945795010017,0.004510945795010017,0.004510945795010017,0.004510945795010017,62.0,62.0,62.0,62.0,0.0033407260414452956,0.0033407260414452956,0.0033407260414452956,0.0033407260414452956,2.034647058431266e-05,2.034647058431266e-05,2.034647058431266e-05,2.034647058431266e-05,0.7393624001131707,0.7393624001131707,0.7393624001131707,0.7393624001131707,101.0,101.0,101.0,101.0,1,3
0,0.00506982630481017,0.00506982630481017,0.00506982630481017,0.00506982630481017,67.0,67.0,67.0,67.0,0.003869389455368313,0.003869389455368313,0.003869389455368313,0.003869389455368313,2.569973700868932e-05,2.569973700868932e-05,2.569973700868932e-05,2.569973700868932e-05,0.8093848039738212,0.8093848039738212,0.8093848039738212,0.8093848039738212,96.0,96.0,96.0,96.0,1,3
0,0.007756028648770807,0.007756028648770807,0.007756028648770807,0.007756028648770807,68.0,68.0,68.0,68.0,0.005862266638839129,0.005862266638839129,0.005862266638839129,0.005862266638839129,6.0142669279367314e-05,6.0142669279367314e-05,6.0142669279367314e-05,6.0142669279367314e-05,1.2385272745808866,1.2385272745808866,1.2385272745808866,1.2385272745808866,97.0,97.0,97.0,97.0,1,4
0,0.017089380016382508,0.017089380016382508,0.017089380016382508,0.017089380016382508,67.0,67.0,67.0,67.0,0.01251124128907704,0.01251124128907704,0.01251124128907704,0.01251124128907704,0.0002920191006645771,0.0002920191006645771,0.0002920191006645771,0.0002920191006645771,2.7016398636095493,2.7016398636095493,2.7016398636095493,2.7016398636095493,92.0,92.0,92.0,92.0,1,2
0,0.005518259065746328,0.005518259065746328,0.005518259065746328,0.005518259065746328,67.0,67.0,67.0,67.0,0.003941232901864076,0.003941232901864076,0.003941232901864076,0.003941232901864076,3.045035582398044e-05,3.045035582398044e-05,3.045035582398044e-05,3.045035582398044e-05,0.8474681314278598,0.8474681314278598,0.8474681314278598,0.8474681314278598,101.0,101.0,101.0,101.0,1,6
0,0.03209950589148614,0.03209950589148614,0.03209950589148614,0.03209950589148614,73.0,73.0,73.0,73.0,0.024046290979783426,0.024046290979783426,0.024046290979783426,0.024046290979783426,0.0010303053045471237,0.0010303053045471237,0.0010303053045471237,0.0010303053045471237,5.4580773207073054,5.4580773207073054,5.4580773207073054,5.4580773207073054,98.0,98.0,98.0,98.0,1,5
0,0.015610964732174897,0.015610964732174897,0.015610964732174897,0.015610964732174897,100.0,100.0,100.0,100.0,0.012000000821031928,0.012000000821031928,0.012000000821031928,0.012000000821031928,0.00024369664387755813,0.00024369664387755813,0.00024369664387755813,0.00024369664387755813,3.3187595307605307,3.3187595307605307,3.3187595307605307,3.3187595307605307,119.0,119.0,119.0,119.0,1,1
0,0.012472304584863191,0.012472304584863191,0.012472304584863191,0.012472304584863191,67.0,67.0,67.0,67.0,0.00941094388178451,0.00941094388178451,0.00941094388178451,0.00941094388178451,0.00015555769466572546,0.00015555769466572546,0.00015555769466572546,0.00015555769466572546,2.076634253111337,2.076634253111337,2.076634253111337,2.076634253111337,94.0,94.0,94.0,94.0,1,2
0,0.005148658055098418,0.005148658055098418,0.005148658055098418,0.005148658055098418,75.0,75.0,75.0,75.0,0.0038308932875807844,0.0038308932875807844,0.0038308932875807844,0.0038308932875807844,2.6506122102886226e-05,2.6506122102886226e-05,2.6506122102886226e-05,2.6506122102886226e-05,0.8203959968545567,0.8203959968545567,0.8203959968545567,0.8203959968545567,108.0,108.0,108.0,108.0,1,6
0,0.014603392295137562,0.014603392295137562,0.014603392295137562,0.014603392295137562,89.0,89.0,89.0,89.0,0.011230386087325642,0.011230386087325642,0.011230386087325642,0.011230386087325642,0.00021325881952315357,0.00021325881952315357,0.00021325881952315357,0.00021325881952315357,3.050282085388732,3.050282085388732,3.050282085388732,3.050282085388732,125.0,125.0,125.0,125.0,1,1
0,0.025538920063574336,0.025538920063574336,0.025538920063574336,0.025538920063574336,76.0,76.0,76.0,76.0,0.01870985705327538,0.01870985705327538,0.01870985705327538,0.01870985705327538,0.0006522056418944874,0.0006522056418944874,0.0006522056418944874,0.0006522056418944874,4.254167930907792,4.254167930907792,4.254167930907792,4.254167930907792,106.0,106.0,106.0,106.0,1,5
0,0.006097124432605684,0.006097124432605684,0.006097124432605684,0.006097124432605684,75.0,75.0,75.0,75.0,0.004487946729633736,0.004487946729633736,0.004487946729633736,0.004487946729633736,3.715730436600765e-05,3.715730436600765e-05,3.715730436600765e-05,3.715730436600765e-05,0.9576064055026565,0.9576064055026565,0.9576064055026565,0.9576064055026565,86.0,86.0,86.0,86.0,1,3
0,0.006615563751515767,0.006615563751515767,0.006615563751515767,0.006615563751515767,60.0,60.0,60.0,60.0,0.004919351362676571,0.004919351362676571,0.004919351362676571,0.004919351362676571,4.376184891695909e-05,4.376184891695909e-05,4.376184891695909e-05,4.376184891695909e-05,0.9994736264329601,0.9994736264329601,0.9994736264329601,0.9994736264329601,112.0,112.0,112.0,112.0,1,4
0,0.0055517756693421365,0.0055517756693421365,0.0055517756693421365,0.0055517756693421365,64.0,64.0,64.0,64.0,0.004319423444936494,0.004319423444936494,0.004319423444936494,0.004319423444936494,3.0820076503273226e-05,3.0820076503273226e-05,3.0820076503273226e-05,3.0820076503273226e-05,0.8481722280399313,0.8481722280399313,0.8481722280399313,0.8481722280399313,101.0,101.0,101.0,101.0,1,3
0,0.007900222562265575,0.007900222562265575,0.007900222562265575,0.007900222562265575,59.0,59.0,59.0,59.0,0.005646145754591671,0.005646145754591671,0.005646145754591671,0.005646145754591671,6.237383675188843e-05,6.237383675188843e-05,6.237383675188843e-05,6.237383675188843e-05,1.0290112859346767,1.0290112859346767,1.0290112859346767,1.0290112859346767,93.0,93.0,93.0,93.0,1,4
0,0.010277412783695221,0.010277412783695221,0.010277412783695221,0.010277412783695221,84.0,84.0,84.0,84.0,0.0080205695981232,0.0080205695981232,0.0080205695981232,0.0080205695981232,0.00010560067163092148,0.00010560067163092148,0.00010560067163092148,0.00010560067163092148,2.0139413956304137,2.0139413956304137,2.0139413956304137,2.0139413956304137,115.0,115.0,115.0,115.0,1,1
0,0.01625425072197567,0.01625425072197567,0.01625425072197567,0.01625425072197567,72.0,72.0,72.0,72.0,0.01183242490968906,0.01183242490968906,0.01183242490968906,0.01183242490968906,0.0002641803500963966,0.0002641803500963966,0.0002641803500963966,0.0002641803500963966,2.713472017915441,2.713472017915441,2.713472017915441,2.713472017915441,95.0,95.0,95.0,95.0,1,2
0,0.005183833535121324,0.005183833535121324,0.005183833535121324,0.005183833535121324,70.0,70.0,70.0,70.0,0.0035195122242068556,0.0035195122242068556,0.0035195122242068556,0.0035195122242068556,2.6872069094579006e-05,2.6872069094579006e-05,2.6872069094579006e-05,2.6872069094579006e-05,0.7977588990480156,0.7977588990480156,0.7977588990480156,0.7977588990480156,100.0,100.0,100.0,100.0,1,6
0,0.025681769846769346,0.025681769846769346,0.025681769846769346,0.025681769846769346,76.0,76.0,76.0,76.0,0.02061904391437399,0.02061904391437399,0.02061904391437399,0.02061904391437399,0.0006595305831458312,0.0006595305831458312,0.0006595305831458312,0.0006595305831458312,4.693895962362999,4.693895962362999,4.693895962362999,4.693895962362999,97.0,97.0,97.0,97.0,1,5
0,0.013490271868034663,0.013490271868034663,0.013490271868034663,0.013490271868034663,105.0,105.0,105.0,105.0,0.010799043397975407,0.010799043397975407,0.010799043397975407,0.010799043397975407,0.00018198351156901077,0.00018198351156901077,0.00018198351156901077,0.00018198351156901077,3.0645500472133467,3.0645500472133467,3.0645500472133467,3.0645500472133467,118.0,118.0,118.0,118.0,1,1
0,0.0045107862865415285,0.0045107862865415285,0.0045107862865415285,0.0045107862865415285,78.0,78.0,78.0,78.0,0.003436303771708833,0.003436303771708833,0.003436303771708833,0.003436303771708833,2.0345860536191055e-05,2.0345860536191055e-05,2.0345860536191055e-05,2.0345860536191055e-05,0.7902446458356298,0.7902446458356298,0.7902446458356298,0.7902446458356298,94.0,94.0,94.0,94.0,1,6
0,0.0339511237761917,0.0339511237761917,0.0339511237761917,0.0339511237761917,64.0,64.0,64.0,64.0,0.026302583335031184,0.026302583335031184,0.026302583335031184,0.026302583335031184,0.0011526251467694959,0.0011526251467694959,0.0011526251467694959,0.0011526251467694959,5.4080571748857995,5.4080571748857995,5.4080571748857995,5.4080571748857995,88.0,88.0,88.0,88.0,1,5
0,0.007871334926943835,0.007871334926943835,0.007871334926943835,0.007871334926943835,65.0,65.0,65.0,65.0,0.005396015147687028,0.005396015147687028,0.005396015147687028,0.005396015147687028,6.195714603989441e-05,6.195714603989441e-05,6.195714603989441e-05,6.195714603989441e-05,1.1938918264497582,1.1938918264497582,1.1938918264497582,1.1938918264497582,88.0,88.0,88.0,88.0,1,4
0,0.006466914482176476,0.006466914482176476,0.006466914482176476,0.006466914482176476,63.0,63.0,63.0,63.0,0.004771388443278288,0.004771388443278288,0.004771388443278288,0.004771388443278288,4.182075618721356e-05,4.182075618721356e-05,4.182075618721356e-05,4.182075618721356e-05,0.8590194491192207,0.8590194491192207,0.8590194491192207,0.8590194491192207,89.0,89.0,89.0,89.0,1,3
0,0.015093469196477399,0.015093469196477399,0.015093469196477399,0.015093469196477399,61.0,61.0,61.0,61.0,0.009011446963772983,0.009011446963772983,0.009011446963772983,0.009011446963772983,0.00022777365920231832,0.00022777365920231832,0.00022777365920231832,0.00022777365920231832,1.8638516615261684,1.8638516615261684,1.8638516615261684,1.8638516615261684,95.0,95.0,95.0,95.0,1,2
0,0.007147886080998777,0.007147886080998777,0.007147886080998777,0.007147886080998777,66.0,66.0,66.0,66.0,0.0051591610286761,0.0051591610286761,0.0051591610286761,0.0051591610286761,5.108868411762603e-05,5.108868411762603e-05,5.108868411762603e-05,5.108868411762603e-05,1.1681085141303487,1.1681085141303487,1.1681085141303487,1.1681085141303487,104.0,104.0,104.0,104.0,1,6
0,0.005409733963421356,0.005409733963421356,0.005409733963421356,0.005409733963421356,70.0,70.0,70.0,70.0,0.004115484237207158,0.004115484237207158,0.004115484237207158,0.004115484237207158,2.925740815191825e-05,2.925740815191825e-05,2.925740815191825e-05,2.925740815191825e-05,0.8396262239871364,0.8396262239871364,0.8396262239871364,0.8396262239871364,98.0,98.0,98.0,98.0,1,4
0,0.005294080145208151,0.005294080145208151,0.005294080145208151,0.005294080145208151,66.0,66.0,66.0,66.0,0.004185322479646256,0.004185322479646256,0.004185322479646256,0.004185322479646256,2.799989040773718e-05,2.799989040773718e-05,2.799989040773718e-05,2.799989040773718e-05,0.8081906555475584,0.8081906555475584,0.8081906555475584,0.8081906555475584,97.0,97.0,97.0,97.0,1,3
0,0.017088195048880567,0.017088195048880567,0.017088195048880567,0.017088195048880567,61.0,61.0,61.0,61.0,0.011080091278640783,0.011080091278640783,0.011080091278640783,0.011080091278640783,0.00029198677276873474,0.00029198677276873474,0.00029198677276873474,0.00029198677276873474,2.2908220899670266,2.2908220899670266,2.2908220899670266,2.2908220899670266,94.0,94.0,94.0,94.0,1,2
0,0.04083012121649754,0.04083012121649754,0.04083012121649754,0.04083012121649754,64.0,64.0,64.0,64.0,0.03081713743782748,0.03081713743782748,0.03081713743782748,0.03081713743782748,0.001667016274155756,0.001667016274155756,0.001667016274155756,0.001667016274155756,6.14942690982118,6.14942690982118,6.14942690982118,6.14942690982118,87.0,87.0,87.0,87.0,1,5
0,0.01241036684128929,0.01241036684128929,0.01241036684128929,0.01241036684128929,92.0,92.0,92.0,92.0,0.00951115169202289,0.00951115169202289,0.00951115169202289,0.00951115169202289,0.00015396754176707594,0.00015396754176707594,0.00015396754176707594,0.00015396754176707594,2.6102951146790936,2.6102951146790936,2.6102951146790936,2.6102951146790936,123.0,123.0,123.0,123.0,1,1
0,0.006340641940295687,0.006340641940295687,0.006340641940295687,0.006340641940295687,80.0,80.0,80.0,80.0,0.004603952975025108,0.004603952975025108,0.004603952975025108,0.004603952975025108,4.020307558051984e-05,4.020307558051984e-05,4.020307558051984e-05,4.020307558051984e-05,1.0756391753727892,1.0756391753727892,1.0756391753727892,1.0756391753727892,103.0,103.0,103.0,103.0,1,6
0,0.009785488112795821,0.009785488112795821,0.009785488112795821,0.009785488112795821,99.0,99.0,99.0,99.0,0.007633532729427827,0.007633532729427827,0.007633532729427827,0.007633532729427827,9.574715402494777e-05,9.574715402494777e-05,9.574715402494777e-05,9.574715402494777e-05,2.2064549259815616,2.2064549259815616,2.2064549259815616,2.2064549259815616,131.0,131.0,131.0,131.0,1,1
0,0.003926967021810496,0.003926967021810496,0.003926967021810496,0.003926967021810496,58.0,58.0,58.0,58.0,0.0030102484807543726,0.0030102484807543726,0.0030102484807543726,0.0030102484807543726,1.54210251459388e-05,1.54210251459388e-05,1.54210251459388e-05,1.54210251459388e-05,0.6028189553803619,0.6028189553803619,0.6028189553803619,0.6028189553803619,86.0,86.0,86.0,86.0,1,3
0,0.0038979259504848558,0.0038979259504848558,0.0038979259504848558,0.0038979259504848558,66.0,66.0,66.0,66.0,0.003103163591228649,0.003103163591228649,0.003103163591228649,0.003103163591228649,1.5189703575628032e-05,1.5189703575628032e-05,1.5189703575628032e-05,1.5189703575628032e-05,0.6405713147972998,0.6405713147972998,0.6405713147972998,0.6405713147972998,97.0,97.0,97.0,97.0,1,4
0,0.02895694872229592,0.02895694872229592,0.02895694872229592,0.02895694872229592,68.0,68.0,68.0,68.0,0.021912773417468747,0.021912773417468747,0.021912773417468747,0.021912773417468747,0.0008384617963061031,0.0008384617963061031,0.0008384617963061031,0.0008384617963061031,4.642042621244744,4.642042621244744,4.642042621244744,4.642042621244744,88.0,88.0,88.0,88.0,1,5
0,0.012413945293797567,0.012413945293797567,0.012413945293797567,0.012413945293797567,66.0,66.0,66.0,66.0,0.008175974042841164,0.008175974042841164,0.008175974042841164,0.008175974042841164,0.00015410554142115477,0.00015410554142115477,0.00015410554142115477,0.00015410554142115477,1.89018914719008,1.89018914719008,1.89018914719008,1.89018914719008,92.0,92.0,92.0,92.0,1,2
0,0.01155416083665719,0.01155416083665719,0.01155416083665719,0.01155416083665719,103.0,103.0,103.0,103.0,0.009067624822966884,0.009067624822966884,0.009067624822966884,0.009067624822966884,0.00013348652140387306,0.00013348652140387306,0.00013348652140387306,0.00013348652140387306,2.5302698493833513,2.5302698493833513,2.5302698493833513,2.5302698493833513,122.0,122.0,122.0,122.0,1,1
0,0.004224353418988976,0.004224353418988976,0.004224353418988976,0.004224353418988976,64.0,64.0,64.0,64.0,0.0032191044507425552,0.0032191044507425552,0.0032191044507425552,0.0032191044507425552,1.7842182135923947e-05,1.7842182135923947e-05,1.7842182135923947e-05,1.7842182135923947e-05,0.6136085587676756,0.6136085587676756,0.6136085587676756,0.6136085587676756,99.0,99.0,99.0,99.0,1,3
0,0.007638949005410929,0.007638949005410929,0.007638949005410929,0.007638949005410929,67.0,67.0,67.0,67.0,0.005190315511718858,0.005190315511718858,0.005190315511718858,0.005190315511718858,5.831025232968112e-05,5.831025232968112e-05,5.831025232968112e-05,5.831025232968112e-05,1.1348882603376715,1.1348882603376715,1.1348882603376715,1.1348882603376715,90.0,90.0,90.0,90.0,1,2
0,0.025351340393722006,0.025351340393722006,0.025351340393722006,0.025351340393722006,67.0,67.0,67.0,67.0,0.019609043453889294,0.019609043453889294,0.019609043453889294,0.019609043453889294,0.0006426763623361436,0.0006426763623361436,0.0006426763623361436,0.0006426763623361436,4.118079043587212,4.118079043587212,4.118079043587212,4.118079043587212,89.0,89.0,89.0,89.0,1,5
0,0.003898792837855941,0.003898792837855941,0.003898792837855941,0.003898792837855941,75.0,75.0,75.0,75.0,0.002994062448642032,0.002994062448642032,0.002994062448642032,0.002994062448642032,1.5179595677285635e-05,1.5179595677285635e-05,1.5179595677285635e-05,1.5179595677285635e-05,0.6204625487386277,0.6204625487386277,0.6204625487386277,0.6204625487386277,93.0,93.0,93.0,93.0,1,4
0,0.006836545617803469,0.006836545617803469,0.006836545617803469,0.006836545617803469,79.0,79.0,79.0,79.0,0.004629259613356069,0.004629259613356069,0.004629259613356069,0.004629259613356069,4.673835087081439e-05,4.673835087081439e-05,4.673835087081439e-05,4.673835087081439e-05,1.0436765387552083,1.0436765387552083,1.0436765387552083,1.0436765387552083,97.0,97.0,97.0,97.0,1,6
0,0.029124565707971353,0.029124565707971353,0.029124565707971353,0.029124565707971353,68.0,68.0,68.0,68.0,0.02316582712607542,0.02316582712607542,0.02316582712607542,0.02316582712607542,0.0008481356525620322,0.0008481356525620322,0.0008481356525620322,0.0008481356525620322,4.7414073744699055,4.7414073744699055,4.7414073744699055,4.7414073744699055,88.0,88.0,88.0,88.0,1,5
0,0.006538510530162495,0.006538510530162495,0.006538510530162495,0.006538510530162495,63.0,63.0,63.0,63.0,0.004139784065729645,0.004139784065729645,0.004139784065729645,0.004139784065729645,4.2747435948646136e-05,4.2747435948646136e-05,4.2747435948646136e-05,4.2747435948646136e-05,0.8933395617747548,0.8933395617747548,0.8933395617747548,0.8933395617747548,94.0,94.0,94.0,94.0,1,6
0,0.00430806505879039,0.00430806505879039,0.00430806505879039,0.00430806505879039,59.0,59.0,59.0,59.0,0.003391698811296863,0.003391698811296863,0.003391698811296863,0.003391698811296863,1.8551260546198683e-05,1.8551260546198683e-05,1.8551260546198683e-05,1.8551260546198683e-05,0.6538614059944636,0.6538614059944636,0.6538614059944636,0.6538614059944636,94.0,94.0,94.0,94.0,1,4
0,0.010377582423158685,0.010377582423158685,0.010377582423158685,0.010377582423158685,93.0,93.0,93.0,93.0,0.008119407043690255,0.008119407043690255,0.008119407043690255,0.008119407043690255,0.00010769413933907152,0.00010769413933907152,0.00010769413933907152,0.00010769413933907152,2.215263853539576,2.215263853539576,2.215263853539576,2.215263853539576,120.0,120.0,120.0,120.0,1,1
0,0.018784232015818088,0.018784232015818088,0.018784232015818088,0.018784232015818088,72.0,72.0,72.0,72.0,0.013258049182620902,0.013258049182620902,0.013258049182620902,0.013258049182620902,0.0003524218762979208,0.0003524218762979208,0.0003524218762979208,0.0003524218762979208,3.06802957411878,3.06802957411878,3.06802957411878,3.06802957411878,87.0,87.0,87.0,87.0,1,2
0,0.00350208374754579,0.00350208374754579,0.00350208374754579,0.00350208374754579,63.0,63.0,63.0,63.0,0.002787781818150167,0.002787781818150167,0.002787781818150167,0.002787781818150167,1.2257075527764203e-05,1.2257075527764203e-05,1.2257075527764203e-05,1.2257075527764203e-05,0.5169391063829256,0.5169391063829256,0.5169391063829256,0.5169391063829256,93.0,93.0,93.0,93.0,1,3
0,0.005052748729529035,0.005052748729529035,0.005052748729529035,0.005052748729529035,55.0,55.0,55.0,55.0,0.003923990882503803,0.003923990882503803,0.003923990882503803,0.003923990882503803,2.5524250316220796e-05,2.5524250316220796e-05,2.5524250316220796e-05,2.5524250316220796e-05,0.6935077113466164,0.6935077113466164,0.6935077113466164,0.6935077113466164,93.0,93.0,93.0,93.0,1,4
0,0.019428676359011843,0.019428676359011843,0.019428676359011843,0.019428676359011843,60.0,60.0,60.0,60.0,0.013245458589501824,0.013245458589501824,0.013245458589501824,0.013245458589501824,0.00037742815884836395,0.00037742815884836395,0.00037742815884836395,0.00037742815884836395,2.426874389456005,2.426874389456005,2.426874389456005,2.426874389456005,87.0,87.0,87.0,87.0,1,2
0,0.004319947610431146,0.004319947610431146,0.004319947610431146,0.004319947610431146,58.0,58.0,58.0,58.0,0.003346205692922252,0.003346205692922252,0.003346205692922252,0.003346205692922252,1.8661477313834924e-05,1.8661477313834924e-05,1.8661477313834924e-05,1.8661477313834924e-05,0.6426896998829363,0.6426896998829363,0.6426896998829363,0.6426896998829363,89.0,89.0,89.0,89.0,1,3
0,0.005837304711586216,0.005837304711586216,0.005837304711586216,0.005837304711586216,70.0,70.0,70.0,70.0,0.0042644852423091625,0.0042644852423091625,0.0042644852423091625,0.0042644852423091625,3.4072656714156506e-05,3.4072656714156506e-05,3.4072656714156506e-05,3.4072656714156506e-05,0.9959413320707569,0.9959413320707569,0.9959413320707569,0.9959413320707569,96.0,96.0,96.0,96.0,1,6
0,0.027960818499297234,0.027960818499297234,0.027960818499297234,0.027960818499297234,86.0,86.0,86.0,86.0,0.02148039696118139,0.02148039696118139,0.02148039696118139,0.02148039696118139,0.0007817842785063686,0.0007817842785063686,0.0007817842785063686,0.0007817842785063686,5.188211058355163,5.188211058355163,5.188211058355163,5.188211058355163,103.0,103.0,103.0,103.0,1,5
0,0.009046931226332999,0.009046931226332999,0.009046931226332999,0.009046931226332999,117.0,117.0,117.0,117.0,0.007093867826608467,0.007093867826608467,0.007093867826608467,0.007093867826608467,8.18184444739986e-05,8.18184444739986e-05,8.18184444739986e-05,8.18184444739986e-05,2.0580279462185342,2.0580279462185342,2.0580279462185342,2.0580279462185342,130.0,130.0,130.0,130.0,1,1
0,0.004103711020928537,0.004103711020928537,0.004103711020928537,0.004103711020928537,71.0,71.0,71.0,71.0,0.003016423653371327,0.003016423653371327,0.003016423653371327,0.003016423653371327,1.6837200580247495e-05,1.6837200580247495e-05,1.6837200580247495e-05,1.6837200580247495e-05,0.6409054283245561,0.6409054283245561,0.6409054283245561,0.6409054283245561,105.0,105.0,105.0,105.0,1,4
0,0.02301198135999829,0.02301198135999829,0.02301198135999829,0.02301198135999829,85.0,85.0,85.0,85.0,0.017905144891592745,0.017905144891592745,0.017905144891592745,0.017905144891592745,0.0005295511492051877,0.0005295511492051877,0.0005295511492051877,0.0005295511492051877,4.241485974955147,4.241485974955147,4.241485974955147,4.241485974955147,106.0,106.0,106.0,106.0,1,5
0,0.009501834573098535,0.009501834573098535,0.009501834573098535,0.009501834573098535,94.0,94.0,94.0,94.0,0.006992153851169699,0.006992153851169699,0.006992153851169699,0.006992153851169699,9.022314447793348e-05,9.022314447793348e-05,9.022314447793348e-05,9.022314447793348e-05,1.8608011299959175,1.8608011299959175,1.8608011299959175,1.8608011299959175,114.0,114.0,114.0,114.0,1,1
0,0.007510502394511404,0.007510502394511404,0.007510502394511404,0.007510502394511404,77.0,77.0,77.0,77.0,0.004936003723703321,0.004936003723703321,0.004936003723703321,0.004936003723703321,5.640515233526157e-05,5.640515233526157e-05,5.640515233526157e-05,5.640515233526157e-05,1.093949081818809,1.093949081818809,1.093949081818809,1.093949081818809,105.0,105.0,105.0,105.0,1,6
0,0.0036998347951837356,0.0036998347951837356,0.0036998347951837356,0.0036998347951837356,54.0,54.0,54.0,54.0,0.0028403894833303822,0.0028403894833303822,0.0028403894833303822,0.0028403894833303822,1.3679505614608472e-05,1.3679505614608472e-05,1.3679505614608472e-05,1.3679505614608472e-05,0.5338173205303003,0.5338173205303003,0.5338173205303003,0.5338173205303003,90.0,90.0,90.0,90.0,1,3
0,0.015409138435876551,0.015409138435876551,0.015409138435876551,0.015409138435876551,58.0,58.0,58.0,58.0,0.010241888716710279,0.010241888716710279,0.010241888716710279,0.010241888716710279,0.00023702979863357652,0.00023702979863357652,0.00023702979863357652,0.00023702979863357652,2.061817664457453,2.061817664457453,2.061817664457453,2.061817664457453,91.0,91.0,91.0,91.0,1,2
0,0.004412862472364518,0.004412862472364518,0.004412862472364518,0.004412862472364518,64.0,64.0,64.0,64.0,0.0034465725426569577,0.0034465725426569577,0.0034465725426569577,0.0034465725426569577,1.9469517074364428e-05,1.9469517074364428e-05,1.9469517074364428e-05,1.9469517074364428e-05,0.6623804070011303,0.6623804070011303,0.6623804070011303,0.6623804070011303,91.0,91.0,91.0,91.0,1,4
0,0.007071640603226039,0.007071640603226039,0.007071640603226039,0.007071640603226039,84.0,84.0,84.0,84.0,0.005517841817688833,0.005517841817688833,0.005517841817688833,0.005517841817688833,4.998105979542785e-05,4.998105979542785e-05,4.998105979542785e-05,4.998105979542785e-05,1.368649739443566,1.368649739443566,1.368649739443566,1.368649739443566,106.0,106.0,106.0,106.0,1,1
0,0.022728030353512195,0.022728030353512195,0.022728030353512195,0.022728030353512195,70.0,70.0,70.0,70.0,0.017367662126325324,0.017367662126325324,0.017367662126325324,0.017367662126325324,0.0005162812374141075,0.0005162812374141075,0.0005162812374141075,0.0005162812374141075,3.6623337733973624,3.6623337733973624,3.6623337733973624,3.6623337733973624,85.0,85.0,85.0,85.0,1,5
0,0.009969566143320646,0.009969566143320646,0.009969566143320646,0.009969566143320646,67.0,67.0,67.0,67.0,0.007064442701802596,0.007064442701802596,0.007064442701802596,0.007064442701802596,9.93529290832203e-05,9.93529290832203e-05,9.93529290832203e-05,9.93529290832203e-05,1.528029906092521,1.528029906092521,1.528029906092521,1.528029906092521,87.0,87.0,87.0,87.0,1,2
0,0.00330146077061628,0.00330146077061628,0.00330146077061628,0.00330146077061628,63.0,63.0,63.0,63.0,0.002574598174212528,0.002574598174212528,0.002574598174212528,0.002574598174212528,1.0899518654032239e-05,1.0899518654032239e-05,1.0899518654032239e-05,1.0899518654032239e-05,0.4665241942258678,0.4665241942258678,0.4665241942258678,0.4665241942258678,90.0,90.0,90.0,90.0,1,3
0,0.004575431276509147,0.004575431276509147,0.004575431276509147,0.004575431276509147,79.0,79.0,79.0,79.0,0.0033301409735837224,0.0033301409735837224,0.0033301409735837224,0.0033301409735837224,2.0933273839661644e-05,2.0933273839661644e-05,2.0933273839661644e-05,2.0933273839661644e-05,0.7869609039448063,0.7869609039448063,0.7869609039448063,0.7869609039448063,100.0,100.0,100.0,100.0,1,6
0,0.0031233767526586175,0.0031233767526586175,0.0031233767526586175,0.0031233767526586175,70.0,70.0,70.0,70.0,0.002484211725342582,0.002484211725342582,0.002484211725342582,0.002484211725342582,9.751955398840394e-06,9.751955398840394e-06,9.751955398840394e-06,9.751955398840394e-06,0.5141360346733033,0.5141360346733033,0.5141360346733033,0.5141360346733033,95.0,95.0,95.0,95.0,1,3
0,0.010017948438788279,0.010017948438788279,0.010017948438788279,0.010017948438788279,94.0,94.0,94.0,94.0,0.007900972444653787,0.007900972444653787,0.007900972444653787,0.007900972444653787,0.00010035929033051758,0.00010035929033051758,0.00010035929033051758,0.00010035929033051758,2.1828548611465313,2.1828548611465313,2.1828548611465313,2.1828548611465313,127.0,127.0,127.0,127.0,1,1
0,0.004399191533722457,0.004399191533722457,0.004399191533722457,0.004399191533722457,69.0,69.0,69.0,69.0,0.0034816556637354023,0.0034816556637354023,0.0034816556637354023,0.0034816556637354023,1.9306969223285114e-05,1.9306969223285114e-05,1.9306969223285114e-05,1.9306969223285114e-05,0.6619740073026825,0.6619740073026825,0.6619740073026825,0.6619740073026825,99.0,99.0,99.0,99.0,1,4
0,0.009717378916189194,0.009717378916189194,0.009717378916189194,0.009717378916189194,57.0,57.0,57.0,57.0,0.006713409759445723,0.006713409759445723,0.006713409759445723,0.006713409759445723,9.440997316201038e-05,9.440997316201038e-05,9.440997316201038e-05,9.440997316201038e-05,1.327352322149834,1.327352322149834,1.327352322149834,1.327352322149834,87.0,87.0,87.0,87.0,1,2
0,0.017309531967550525,0.017309531967550525,0.017309531967550525,0.017309531967550525,64.0,64.0,64.0,64.0,0.013171579974387077,0.013171579974387077,0.013171579974387077,0.013171579974387077,0.0002995870066013305,0.0002995870066013305,0.0002995870066013305,0.0002995870066013305,2.6967937487502387,2.6967937487502387,2.6967937487502387,2.6967937487502387,83.0,83.0,83.0,83.0,1,5
0,0.004759386638625916,0.004759386638625916,0.004759386638625916,0.004759386638625916,70.0,70.0,70.0,70.0,0.0035851455438892653,0.0035851455438892653,0.0035851455438892653,0.0035851455438892653,2.26516947358086e-05,2.26516947358086e-05,2.26516947358086e-05,2.26516947358086e-05,0.865551937004911,0.865551937004911,0.865551937004911,0.865551937004911,104.0,104.0,104.0,104.0,1,6
0,0.011649662254997735,0.011649662254997735,0.011649662254997735,0.011649662254997735,57.0,57.0,57.0,57.0,0.007857293835351503,0.007857293835351503,0.007857293835351503,0.007857293835351503,0.00013560453207799535,0.00013560453207799535,0.00013560453207799535,0.00013560453207799535,1.5702714720293356,1.5702714720293356,1.5702714720293356,1.5702714720293356,98.0,98.0,98.0,98.0,1,2
0,0.005586976397009035,0.005586976397009035,0.005586976397009035,0.005586976397009035,78.0,78.0,78.0,78.0,0.004349532520259901,0.004349532520259901,0.004349532520259901,0.004349532520259901,3.1214273720919075e-05,3.1214273720919075e-05,3.1214273720919075e-05,3.1214273720919075e-05,0.9992061347499932,0.9992061347499932,0.9992061347499932,0.9992061347499932,111.0,111.0,111.0,111.0,1,6
0,0.020092063335414873,0.020092063335414873,0.020092063335414873,0.020092063335414873,77.0,77.0,77.0,77.0,0.014817246921654733,0.014817246921654733,0.014817246921654733,0.014817246921654733,0.00040369094069106856,0.00040369094069106856,0.00040369094069106856,0.00040369094069106856,3.470183058178812,3.470183058178812,3.470183058178812,3.470183058178812,94.0,94.0,94.0,94.0,1,5
0,0.004525198598861254,0.004525198598861254,0.004525198598861254,0.004525198598861254,61.0,61.0,61.0,61.0,0.0035963052344475544,0.0035963052344475544,0.0035963052344475544,0.0035963052344475544,2.044747216251061e-05,2.044747216251061e-05,2.044747216251061e-05,2.044747216251061e-05,0.689830749355792,0.689830749355792,0.689830749355792,0.689830749355792,103.0,103.0,103.0,103.0,1,4
0,0.008586848335784972,0.008586848335784972,0.008586848335784972,0.008586848335784972,98.0,98.0,98.0,98.0,0.006921137579303024,0.006921137579303024,0.006921137579303024,0.006921137579303024,7.371938447589495e-05,7.371938447589495e-05,7.371938447589495e-05,7.371938447589495e-05,1.9090404799137002,1.9090404799137002,1.9090404799137002,1.9090404799137002,123.0,123.0,123.0,123.0,1,1
0,0.0034893383518960898,0.0034893383518960898,0.0034893383518960898,0.0034893383518960898,58.0,58.0,58.0,58.0,0.0026481517349950796,0.0026481517349950796,0.0026481517349950796,0.0026481517349950796,1.2161004194507325e-05,1.2161004194507325e-05,1.2161004194507325e-05,1.2161004194507325e-05,0.5131991803509536,0.5131991803509536,0.5131991803509536,0.5131991803509536,108.0,108.0,108.0,108.0,1,3
0,0.00821742587603438,0.00821742587603438,0.00821742587603438,0.00821742587603438,74.0,74.0,74.0,74.0,0.0053601594230094874,0.0053601594230094874,0.0053601594230094874,0.0053601594230094874,6.752608801364266e-05,6.752608801364266e-05,6.752608801364266e-05,6.752608801364266e-05,1.2107668931242825,1.2107668931242825,1.2107668931242825,1.2107668931242825,101.0,101.0,101.0,101.0,1,6
0,0.024894010797244376,0.024894010797244376,0.024894010797244376,0.024894010797244376,66.0,66.0,66.0,66.0,0.0189622598416506,0.0189622598416506,0.0189622598416506,0.0189622598416506,0.0006196326916215103,0.0006196326916215103,0.0006196326916215103,0.0006196326916215103,3.9327432165313567,3.9327432165313567,3.9327432165313567,3.9327432165313567,100.0,100.0,100.0,100.0,1,5
0,0.0033387410213342726,0.0033387410213342726,0.0033387410213342726,0.0033387410213342726,71.0,71.0,71.0,71.0,0.002668776216362154,0.002668776216362154,0.002668776216362154,0.002668776216362154,1.1137556010299356e-05,1.1137556010299356e-05,1.1137556010299356e-05,1.1137556010299356e-05,0.552090092577063,0.552090092577063,0.552090092577063,0.552090092577063,96.0,96.0,96.0,96.0,1,3
0,0.006018855680683154,0.006018855680683154,0.006018855680683154,0.006018855680683154,57.0,57.0,57.0,57.0,0.004475957424813045,0.004475957424813045,0.004475957424813045,0.004475957424813045,3.622661188701598e-05,3.622661188701598e-05,3.622661188701598e-05,3.622661188701598e-05,0.8599787834887453,0.8599787834887453,0.8599787834887453,0.8599787834887453,85.0,85.0,85.0,85.0,1,4
0,0.010716736732273816,0.010716736732273816,0.010716736732273816,0.010716736732273816,91.0,91.0,91.0,91.0,0.008283452997254814,0.008283452997254814,0.008283452997254814,0.008283452997254814,0.0001148483827191402,0.0001148483827191402,0.0001148483827191402,0.0001148483827191402,2.2580400761545274,2.2580400761545274,2.2580400761545274,2.2580400761545274,128.0,128.0,128.0,128.0,1,1
0,0.011447149635554125,0.011447149635554125,0.011447149635554125,0.011447149635554125,56.0,56.0,56.0,56.0,0.007773392182108211,0.007773392182108211,0.007773392182108211,0.007773392182108211,0.00013101127464461542,0.00013101127464461542,0.00013101127464461542,0.00013101127464461542,1.4576049024641355,1.4576049024641355,1.4576049024641355,1.4576049024641355,89.0,89.0,89.0,89.0,1,2
0,0.004761538327774233,0.004761538327774233,0.004761538327774233,0.004761538327774233,63.0,63.0,63.0,63.0,0.0037610569899286096,0.0037610569899286096,0.0037610569899286096,0.0037610569899286096,2.2668968633718604e-05,2.2668968633718604e-05,2.2668968633718604e-05,2.2668968633718604e-05,0.7841401052320255,0.7841401052320255,0.7841401052320255,0.7841401052320255,101.0,101.0,101.0,101.0,1,4
0,0.025059061408725998,0.025059061408725998,0.025059061408725998,0.025059061408725998,67.0,67.0,67.0,67.0,0.019103170437939954,0.019103170437939954,0.019103170437939954,0.019103170437939954,0.0006279081949750084,0.0006279081949750084,0.0006279081949750084,0.0006279081949750084,3.973795204471253,3.973795204471253,3.973795204471253,3.973795204471253,88.0,88.0,88.0,88.0,1,5
0,0.009718293413181716,0.009718293413181716,0.009718293413181716,0.009718293413181716,49.0,49.0,49.0,49.0,0.006373146083633569,0.006373146083633569,0.006373146083633569,0.006373146083633569,9.442844330412798e-05,9.442844330412798e-05,9.442844330412798e-05,9.442844330412798e-05,1.111968993379062,1.111968993379062,1.111968993379062,1.111968993379062,79.0,79.0,79.0,79.0,1,2
0,0.007113535468783749,0.007113535468783749,0.007113535468783749,0.007113535468783749,72.0,72.0,72.0,72.0,0.005138975605612265,0.005138975605612265,0.005138975605612265,0.005138975605612265,5.058712547927191e-05,5.058712547927191e-05,5.058712547927191e-05,5.058712547927191e-05,1.200846092799134,1.200846092799134,1.200846092799134,1.200846092799134,107.0,107.0,107.0,107.0,1,6
0,0.004694313273763115,0.004694313273763115,0.004694313273763115,0.004694313273763115,58.0,58.0,58.0,58.0,0.0035355494391648423,0.0035355494391648423,0.0035355494391648423,0.0035355494391648423,2.2025912408241117e-05,2.2025912408241117e-05,2.2025912408241117e-05,2.2025912408241117e-05,0.699428789701267,0.699428789701267,0.699428789701267,0.699428789701267,86.0,86.0,86.0,86.0,1,3
0,0.012876615229550442,0.012876615229550442,0.012876615229550442,0.012876615229550442,92.0,92.0,92.0,92.0,0.00990848591870633,0.00990848591870633,0.00990848591870633,0.00990848591870633,0.0001657927839331693,0.0001657927839331693,0.0001657927839331693,0.0001657927839331693,2.6569959343441014,2.6569959343441014,2.6569959343441014,2.6569959343441014,118.0,118.0,118.0,118.0,1,1
0,0.007709049670366514,0.007709049670366514,0.007709049670366514,0.007709049670366514,65.0,65.0,65.0,65.0,0.005795223141128203,0.005795223141128203,0.005795223141128203,0.005795223141128203,5.940018575906661e-05,5.940018575906661e-05,5.940018575906661e-05,5.940018575906661e-05,1.0690137779822786,1.0690137779822786,1.0690137779822786,1.0690137779822786,89.0,89.0,89.0,89.0,1,4
0,0.02159618043426542,0.02159618043426542,0.02159618043426542,0.02159618043426542,73.0,73.0,73.0,73.0,0.016391053962416392,0.016391053962416392,0.016391053962416392,0.016391053962416392,0.00046638542956615336,0.00046638542956615336,0.00046638542956615336,0.00046638542956615336,3.7818817058052323,3.7818817058052323,3.7818817058052323,3.7818817058052323,96.0,96.0,96.0,96.0,1,5
0,0.0048845028507015255,0.0048845028507015255,0.0048845028507015255,0.0048845028507015255,91.0,91.0,91.0,91.0,0.003802713136275977,0.003802713136275977,0.003802713136275977,0.003802713136275977,2.3848522183820536e-05,2.3848522183820536e-05,2.3848522183820536e-05,2.3848522183820536e-05,0.9323226272185847,0.9323226272185847,0.9323226272185847,0.9323226272185847,115.0,115.0,115.0,115.0,1,6
0,0.01128662216815452,0.01128662216815452,0.01128662216815452,0.01128662216815452,103.0,103.0,103.0,103.0,0.00892689280580029,0.00892689280580029,0.00892689280580029,0.00892689280580029,0.00012736208847670394,0.00012736208847670394,0.00012736208847670394,0.00012736208847670394,2.6301520235099423,2.6301520235099423,2.6301520235099423,2.6301520235099423,125.0,125.0,125.0,125.0,1,1
0,0.0037401983584799494,0.0037401983584799494,0.0037401983584799494,0.0037401983584799494,63.0,63.0,63.0,63.0,0.002855774198261446,0.002855774198261446,0.002855774198261446,0.002855774198261446,1.3980817061719096e-05,1.3980817061719096e-05,1.3980817061719096e-05,1.3980817061719096e-05,0.5771802726553502,0.5771802726553502,0.5771802726553502,0.5771802726553502,88.0,88.0,88.0,88.0,1,3
0,0.01071212798645581,0.01071212798645581,0.01071212798645581,0.01071212798645581,55.0,55.0,55.0,55.0,0.00717712954254357,0.00717712954254357,0.00717712954254357,0.00717712954254357,0.00011325413675979786,0.00011325413675979786,0.00011325413675979786,0.00011325413675979786,1.3187114080672613,1.3187114080672613,1.3187114080672613,1.3187114080672613,85.0,85.0,85.0,85.0,1,2
0,0.011595215138795884,0.011595215138795884,0.011595215138795884,0.011595215138795884,94.0,94.0,94.0,94.0,0.009347192197556272,0.009347192197556272,0.009347192197556272,0.009347192197556272,0.0001344323012655815,0.0001344323012655815,0.0001344323012655815,0.0001344323012655815,2.4719490720605526,2.4719490720605526,2.4719490720605526,2.4719490720605526,119.0,119.0,119.0,119.0,1,1
0,0.012244992783648209,0.012244992783648209,0.012244992783648209,0.012244992783648209,54.0,54.0,54.0,54.0,0.009365741529297361,0.009365741529297361,0.009365741529297361,0.009365741529297361,0.0001498902360909383,0.0001498902360909383,0.0001498902360909383,0.0001498902360909383,1.7400080020825257,1.7400080020825257,1.7400080020825257,1.7400080020825257,97.0,97.0,97.0,97.0,1,2
0,0.003739581658135852,0.003739581658135852,0.003739581658135852,0.003739581658135852,56.0,56.0,56.0,56.0,0.0026720634135488698,0.0026720634135488698,0.0026720634135488698,0.0026720634135488698,1.3984386376325071e-05,1.3984386376325071e-05,1.3984386376325071e-05,1.3984386376325071e-05,0.5325638893147864,0.5325638893147864,0.5325638893147864,0.5325638893147864,100.0,100.0,100.0,100.0,1,3
0,0.004008846352393958,0.004008846352393958,0.004008846352393958,0.004008846352393958,79.0,79.0,79.0,79.0,0.0029402193415084595,0.0029402193415084595,0.0029402193415084595,0.0029402193415084595,1.6065505971467604e-05,1.6065505971467604e-05,1.6065505971467604e-05,1.6065505971467604e-05,0.6799897110322076,0.6799897110322076,0.6799897110322076,0.6799897110322076,109.0,109.0,109.0,109.0,1,6
0,0.005824794020953295,0.005824794020953295,0.005824794020953295,0.005824794020953295,73.0,73.0,73.0,73.0,0.004546953355448944,0.004546953355448944,0.004546953355448944,0.004546953355448944,3.387847756408701e-05,3.387847756408701e-05,3.387847756408701e-05,3.387847756408701e-05,0.9742855695507138,0.9742855695507138,0.9742855695507138,0.9742855695507138,103.0,103.0,103.0,103.0,1,4
0,0.026456838346018075,0.026456838346018075,0.026456838346018075,0.026456838346018075,69.0,69.0,69.0,69.0,0.021288278655864943,0.021288278655864943,0.021288278655864943,0.021288278655864943,0.0006999642938688503,0.0006999642938688503,0.0006999642938688503,0.0006999642938688503,4.532801022024639,4.532801022024639,4.532801022024639,4.532801022024639,96.0,96.0,96.0,96.0,1,5
0,0.02874342737128394,0.02874342737128394,0.02874342737128394,0.02874342737128394,79.0,79.0,79.0,79.0,0.023008280600566006,0.023008280600566006,0.023008280600566006,0.023008280600566006,0.0008259612033124806,0.0008259612033124806,0.0008259612033124806,0.0008259612033124806,5.251979689029618,5.251979689029618,5.251979689029618,5.251979689029618,97.0,97.0,97.0,97.0,1,5
0,0.005283892429072183,0.005283892429072183,0.005283892429072183,0.005283892429072183,62.0,62.0,62.0,62.0,0.004013287772496392,0.004013287772496392,0.004013287772496392,0.004013287772496392,2.791604177333808e-05,2.791604177333808e-05,2.791604177333808e-05,2.791604177333808e-05,0.7609351551221621,0.7609351551221621,0.7609351551221621,0.7609351551221621,98.0,98.0,98.0,98.0,1,3
0,0.004045910791855357,0.004045910791855357,0.004045910791855357,0.004045910791855357,91.0,91.0,91.0,91.0,0.003094325443054888,0.003094325443054888,0.003094325443054888,0.003094325443054888,1.6368119351913182e-05,1.6368119351913182e-05,1.6368119351913182e-05,1.6368119351913182e-05,0.8497062513564577,0.8497062513564577,0.8497062513564577,0.8497062513564577,116.0,116.0,116.0,116.0,1,6
0,0.005236098746840981,0.005236098746840981,0.005236098746840981,0.005236098746840981,70.0,70.0,70.0,70.0,0.004058281955926499,0.004058281955926499,0.004058281955926499,0.004058281955926499,2.7413641203905354e-05,2.7413641203905354e-05,2.7413641203905354e-05,2.7413641203905354e-05,0.891293628001467,0.891293628001467,0.891293628001467,0.891293628001467,101.0,101.0,101.0,101.0,1,4
0,0.009695446844872686,0.009695446844872686,0.009695446844872686,0.009695446844872686,90.0,90.0,90.0,90.0,0.0075059900624878505,0.0075059900624878505,0.0075059900624878505,0.0075059900624878505,9.397191137149306e-05,9.397191137149306e-05,9.397191137149306e-05,9.397191137149306e-05,1.947369365668497,1.947369365668497,1.947369365668497,1.947369365668497,119.0,119.0,119.0,119.0,1,1
0,0.016358276364122126,0.016358276364122126,0.016358276364122126,0.016358276364122126,53.0,53.0,53.0,53.0,0.009943604881870146,0.009943604881870146,0.009943604881870146,0.009943604881870146,0.0002672592049399084,0.0002672592049399084,0.0002672592049399084,0.0002672592049399084,1.842059566023627,1.842059566023627,1.842059566023627,1.842059566023627,91.0,91.0,91.0,91.0,1,2
0,0.004274512870313983,0.004274512870313983,0.004274512870313983,0.004274512870313983,83.0,83.0,83.0,83.0,0.0032948288934620006,0.0032948288934620006,0.0032948288934620006,0.0032948288934620006,1.826901086898401e-05,1.826901086898401e-05,1.826901086898401e-05,1.826901086898401e-05,0.8496383383207556,0.8496383383207556,0.8496383383207556,0.8496383383207556,110.0,110.0,110.0,110.0,1,6
0,0.017626332036893132,0.017626332036893132,0.017626332036893132,0.017626332036893132,71.0,71.0,71.0,71.0,0.013624714940714346,0.013624714940714346,0.013624714940714346,0.013624714940714346,0.0003104030732423563,0.0003104030732423563,0.0003104030732423563,0.0003104030732423563,3.088033483368881,3.088033483368881,3.088033483368881,3.088033483368881,106.0,106.0,106.0,106.0,1,5
0,0.006127566589547023,0.006127566589547023,0.006127566589547023,0.006127566589547023,64.0,64.0,64.0,64.0,0.004803713571931858,0.004803713571931858,0.004803713571931858,0.004803713571931858,3.7539203663926084e-05,3.7539203663926084e-05,3.7539203663926084e-05,3.7539203663926084e-05,0.9581050365639492,0.9581050365639492,0.9581050365639492,0.9581050365639492,93.0,93.0,93.0,93.0,1,4
0,0.003661453557799058,0.003661453557799058,0.003661453557799058,0.003661453557799058,57.0,57.0,57.0,57.0,0.0027493593592750696,0.0027493593592750696,0.0027493593592750696,0.0027493593592750696,1.3394622010010067e-05,1.3394622010010067e-05,1.3394622010010067e-05,1.3394622010010067e-05,0.514061805865616,0.514061805865616,0.514061805865616,0.514061805865616,95.0,95.0,95.0,95.0,1,3
0,0.00797590726634468,0.00797590726634468,0.00797590726634468,0.00797590726634468,70.0,70.0,70.0,70.0,0.004683619754503044,0.004683619754503044,0.004683619754503044,0.004683619754503044,6.360332572196913e-05,6.360332572196913e-05,6.360332572196913e-05,6.360332572196913e-05,1.0823457700879753,1.0823457700879753,1.0823457700879753,1.0823457700879753,101.0,101.0,101.0,101.0,1,2
0,0.011449403144646896,0.011449403144646896,0.011449403144646896,0.011449403144646896,99.0,99.0,99.0,99.0,0.008783418418206292,0.008783418418206292,0.008783418418206292,0.008783418418206292,0.0001310865406295064,0.0001310865406295064,0.0001310865406295064,0.0001310865406295064,2.5232696410306534,2.5232696410306534,2.5232696410306534,2.5232696410306534,132.0,132.0,132.0,132.0,1,1
0,0.0035893693826425524,0.0035893693826425524,0.0035893693826425524,0.0035893693826425524,63.0,63.0,63.0,63.0,0.0028445493202622508,0.0028445493202622508,0.0028445493202622508,0.0028445493202622508,1.2883081040315279e-05,1.2883081040315279e-05,1.2883081040315279e-05,1.2883081040315279e-05,0.5733770580173039,0.5733770580173039,0.5733770580173039,0.5733770580173039,98.0,98.0,98.0,98.0,1,3
0,0.021486460617913174,0.021486460617913174,0.021486460617913174,0.021486460617913174,73.0,73.0,73.0,73.0,0.01726630072238151,0.01726630072238151,0.01726630072238151,0.01726630072238151,0.00046166562513305935,0.00046166562513305935,0.00046166562513305935,0.00046166562513305935,3.8461226656669183,3.8461226656669183,3.8461226656669183,3.8461226656669183,97.0,97.0,97.0,97.0,1,5
0,0.004009100224246236,0.004009100224246236,0.004009100224246236,0.004009100224246236,87.0,87.0,87.0,87.0,0.0031735684379282304,0.0031735684379282304,0.0031735684379282304,0.0031735684379282304,1.606885469513983e-05,1.606885469513983e-05,1.606885469513983e-05,1.606885469513983e-05,0.7724459934205898,0.7724459934205898,0.7724459934205898,0.7724459934205898,113.0,113.0,113.0,113.0,1,6
0,0.0035853514622766563,0.0035853514622766563,0.0035853514622766563,0.0035853514622766563,77.0,77.0,77.0,77.0,0.002841717948244132,0.002841717948244132,0.002841717948244132,0.002841717948244132,1.2854586383094871e-05,1.2854586383094871e-05,1.2854586383094871e-05,1.2854586383094871e-05,0.6429379777300331,0.6429379777300331,0.6429379777300331,0.6429379777300331,110.0,110.0,110.0,110.0,1,4
0,0.008734917737701476,0.008734917737701476,0.008734917737701476,0.008734917737701476,100.0,100.0,100.0,100.0,0.006732710089954515,0.006732710089954515,0.006732710089954515,0.006732710089954515,7.62956209983137e-05,7.62956209983137e-05,7.62956209983137e-05,7.62956209983137e-05,1.934043365932932,1.934043365932932,1.934043365932932,1.934043365932932,124.0,124.0,124.0,124.0,1,1
0,0.013989847496940974,0.013989847496940974,0.013989847496940974,0.013989847496940974,73.0,73.0,73.0,73.0,0.008703979958556188,0.008703979958556188,0.008703979958556188,0.008703979958556188,0.00019555820930844829,0.00019555820930844829,0.00019555820930844829,0.00019555820930844829,1.9667228701569428,1.9667228701569428,1.9667228701569428,1.9667228701569428,97.0,97.0,97.0,97.0,1,2
0,0.004196354841330241,0.004196354841330241,0.004196354841330241,0.004196354841330241,98.0,98.0,98.0,98.0,0.003261571111395216,0.003261571111395216,0.003261571111395216,0.003261571111395216,1.760669954532509e-05,1.760669954532509e-05,1.760669954532509e-05,1.760669954532509e-05,0.9335669639297879,0.9335669639297879,0.9335669639297879,0.9335669639297879,118.0,118.0,118.0,118.0,1,6
0,0.012159178714901756,0.012159178714901756,0.012159178714901756,0.012159178714901756,66.0,66.0,66.0,66.0,0.00810359911584939,0.00810359911584939,0.00810359911584939,0.00810359911584939,0.00014784541853900507,0.00014784541853900507,0.00014784541853900507,0.00014784541853900507,1.7037235957531385,1.7037235957531385,1.7037235957531385,1.7037235957531385,92.0,92.0,92.0,92.0,1,2
0,0.019010108129194517,0.019010108129194517,0.019010108129194517,0.019010108129194517,73.0,73.0,73.0,73.0,0.014321205920152087,0.014321205920152087,0.014321205920152087,0.014321205920152087,0.00036123179613879177,0.00036123179613879177,0.00036123179613879177,0.00036123179613879177,3.157310176055392,3.157310176055392,3.157310176055392,3.157310176055392,98.0,98.0,98.0,98.0,1,5
0,0.011250707167235715,0.011250707167235715,0.011250707167235715,0.011250707167235715,90.0,90.0,90.0,90.0,0.008895269092911747,0.008895269092911747,0.008895269092911747,0.008895269092911747,0.0001265764189134311,0.0001265764189134311,0.0001265764189134311,0.0001265764189134311,2.43974253818118,2.43974253818118,2.43974253818118,2.43974253818118,121.0,121.0,121.0,121.0,1,1
0,0.004177247400382418,0.004177247400382418,0.004177247400382418,0.004177247400382418,68.0,68.0,68.0,68.0,0.0031094822267551474,0.0031094822267551474,0.0031094822267551474,0.0031094822267551474,1.7449189954240666e-05,1.7449189954240666e-05,1.7449189954240666e-05,1.7449189954240666e-05,0.704569535711572,0.704569535711572,0.704569535711572,0.704569535711572,106.0,106.0,106.0,106.0,1,4
0,0.0036081618364604403,0.0036081618364604403,0.0036081618364604403,0.0036081618364604403,60.0,60.0,60.0,60.0,0.0028748363975743298,0.0028748363975743298,0.0028748363975743298,0.0028748363975743298,1.3018677763079109e-05,1.3018677763079109e-05,1.3018677763079109e-05,1.3018677763079109e-05,0.5563981977959747,0.5563981977959747,0.5563981977959747,0.5563981977959747,102.0,102.0,102.0,102.0,1,3
0,0.0036417906303016405,0.0036417906303016405,0.0036417906303016405,0.0036417906303016405,59.0,59.0,59.0,59.0,0.0027732341325416255,0.0027732341325416255,0.0027732341325416255,0.0027732341325416255,1.3262606967861864e-05,1.3262606967861864e-05,1.3262606967861864e-05,1.3262606967861864e-05,0.5735520105315569,0.5735520105315569,0.5735520105315569,0.5735520105315569,100.0,100.0,100.0,100.0,1,3
0,0.008256819530157014,0.008256819530157014,0.008256819530157014,0.008256819530157014,50.0,50.0,50.0,50.0,0.005980583976839549,0.005980583976839549,0.005980583976839549,0.005980583976839549,6.814706167953527e-05,6.814706167953527e-05,6.814706167953527e-05,6.814706167953527e-05,1.1104333364491623,1.1104333364491623,1.1104333364491623,1.1104333364491623,94.0,94.0,94.0,94.0,1,2
0,0.00616760958250125,0.00616760958250125,0.00616760958250125,0.00616760958250125,67.0,67.0,67.0,67.0,0.004750700966593566,0.004750700966593566,0.004750700966593566,0.004750700966593566,3.80376568411167e-05,3.80376568411167e-05,3.80376568411167e-05,3.80376568411167e-05,0.9833513289370777,0.9833513289370777,0.9833513289370777,0.9833513289370777,92.0,92.0,92.0,92.0,1,4
0,0.006222836595579022,0.006222836595579022,0.006222836595579022,0.006222836595579022,89.0,89.0,89.0,89.0,0.004683215723372794,0.004683215723372794,0.004683215723372794,0.004683215723372794,3.872289131255551e-05,3.872289131255551e-05,3.872289131255551e-05,3.872289131255551e-05,1.1592632113516848,1.1592632113516848,1.1592632113516848,1.1592632113516848,118.0,118.0,118.0,118.0,1,6
0,0.00902927257316432,0.00902927257316432,0.00902927257316432,0.00902927257316432,104.0,104.0,104.0,104.0,0.0070117552374572,0.0070117552374572,0.0070117552374572,0.0070117552374572,8.147589653692275e-05,8.147589653692275e-05,8.147589653692275e-05,8.147589653692275e-05,2.0408192264921308,2.0408192264921308,2.0408192264921308,2.0408192264921308,139.0,139.0,139.0,139.0,1,1
0,0.025776866162185955,0.025776866162185955,0.025776866162185955,0.025776866162185955,74.0,74.0,74.0,74.0,0.0194800595131767,0.0194800595131767,0.0194800595131767,0.0194800595131767,0.0006644269459033839,0.0006644269459033839,0.0006644269459033839,0.0006644269459033839,4.223070823300814,4.223070823300814,4.223070823300814,4.223070823300814,105.0,105.0,105.0,105.0,1,5
0,0.010509689222940068,0.010509689222940068,0.010509689222940068,0.010509689222940068,66.0,66.0,66.0,66.0,0.007111024185173748,0.007111024185173748,0.007111024185173748,0.007111024185173748,0.00011045176660292252,0.00011045176660292252,0.00011045176660292252,0.00011045176660292252,1.5700815479705468,1.5700815479705468,1.5700815479705468,1.5700815479705468,91.0,91.0,91.0,91.0,1,2
0,0.006049436757660811,0.006049436757660811,0.006049436757660811,0.006049436757660811,82.0,82.0,82.0,82.0,0.004679136128837735,0.004679136128837735,0.004679136128837735,0.004679136128837735,3.65956080107426e-05,3.65956080107426e-05,3.65956080107426e-05,3.65956080107426e-05,1.1246090861709215,1.1246090861709215,1.1246090861709215,1.1246090861709215,107.0,107.0,107.0,107.0,1,6
0,0.004516943827301573,0.004516943827301573,0.004516943827301573,0.004516943827301573,70.0,70.0,70.0,70.0,0.003435760154477304,0.003435760154477304,0.003435760154477304,0.003435760154477304,2.040135473793248e-05,2.040135473793248e-05,2.040135473793248e-05,2.040135473793248e-05,0.780420220994371,0.780420220994371,0.780420220994371,0.780420220994371,106.0,106.0,106.0,106.0,1,4
0,0.01019203123194586,0.01019203123194586,0.01019203123194586,0.01019203123194586,103.0,103.0,103.0,103.0,0.007771162276136136,0.007771162276136136,0.007771162276136136,0.007771162276136136,0.00010387282036829986,0.00010387282036829986,0.00010387282036829986,0.00010387282036829986,2.3152516849463556,2.3152516849463556,2.3152516849463556,2.3152516849463556,128.0,128.0,128.0,128.0,1,1
0,0.021458150536524893,0.021458150536524893,0.021458150536524893,0.021458150536524893,78.0,78.0,78.0,78.0,0.0163192170031916,0.0163192170031916,0.0163192170031916,0.0163192170031916,0.00046041813454446333,0.00046041813454446333,0.00046041813454446333,0.00046041813454446333,3.55843423394517,3.55843423394517,3.55843423394517,3.55843423394517,99.0,99.0,99.0,99.0,1,5
0,0.0035426248606773955,0.0035426248606773955,0.0035426248606773955,0.0035426248606773955,71.0,71.0,71.0,71.0,0.00264570066933975,0.00264570066933975,0.00264570066933975,0.00264570066933975,1.254112804367451e-05,1.254112804367451e-05,1.254112804367451e-05,1.254112804367451e-05,0.5560019825558362,0.5560019825558362,0.5560019825558362,0.5560019825558362,104.0,104.0,104.0,104.0,1,3
0,0.011577387762010007,0.011577387762010007,0.011577387762010007,0.011577387762010007,113.0,113.0,113.0,113.0,0.008616515990439609,0.008616515990439609,0.008616515990439609,0.008616515990439609,0.00013403417862171827,0.00013403417862171827,0.00013403417862171827,0.00013403417862171827,2.686583484875744,2.686583484875744,2.686583484875744,2.686583484875744,134.0,134.0,134.0,134.0,1,1
0,0.0028710048418684247,0.0028710048418684247,0.0028710048418684247,0.0028710048418684247,67.0,67.0,67.0,67.0,0.002134181642199955,0.002134181642199955,0.002134181642199955,0.002134181642199955,8.242066518521043e-06,8.242066518521043e-06,8.242066518521043e-06,8.242066518521043e-06,0.46103859705158357,0.46103859705158357,0.46103859705158357,0.46103859705158357,106.0,106.0,106.0,106.0,1,3
0,0.0039005103923304587,0.0039005103923304587,0.0039005103923304587,0.0039005103923304587,72.0,72.0,72.0,72.0,0.003070313656462714,0.003070313656462714,0.003070313656462714,0.003070313656462714,1.5204377728077322e-05,1.5204377728077322e-05,1.5204377728077322e-05,1.5204377728077322e-05,0.6852702890568049,0.6852702890568049,0.6852702890568049,0.6852702890568049,97.0,97.0,97.0,97.0,1,4
0,0.004464067187652633,0.004464067187652633,0.004464067187652633,0.004464067187652633,77.0,77.0,77.0,77.0,0.003391300271537395,0.003391300271537395,0.003391300271537395,0.003391300271537395,1.9921489304806712e-05,1.9921489304806712e-05,1.9921489304806712e-05,1.9921489304806712e-05,0.8062023268887666,0.8062023268887666,0.8062023268887666,0.8062023268887666,115.0,115.0,115.0,115.0,1,6
0,0.008540974719967582,0.008540974719967582,0.008540974719967582,0.008540974719967582,60.0,60.0,60.0,60.0,0.005955987994762926,0.005955987994762926,0.005955987994762926,0.005955987994762926,7.287916098424954e-05,7.287916098424954e-05,7.287916098424954e-05,7.287916098424954e-05,1.1517211122908697,1.1517211122908697,1.1517211122908697,1.1517211122908697,96.0,96.0,96.0,96.0,1,2
0,0.02327685289108548,0.02327685289108548,0.02327685289108548,0.02327685289108548,67.0,67.0,67.0,67.0,0.018479616004912738,0.018479616004912738,0.018479616004912738,0.018479616004912738,0.0005418116004272365,0.0005418116004272365,0.0005418116004272365,0.0005418116004272365,3.898988699442183,3.898988699442183,3.898988699442183,3.898988699442183,96.0,96.0,96.0,96.0,1,5
0,0.02592426988626987,0.02592426988626987,0.02592426988626987,0.02592426988626987,71.0,71.0,71.0,71.0,0.02037008927993811,0.02037008927993811,0.02037008927993811,0.02037008927993811,0.0006720532482604811,0.0006720532482604811,0.0006720532482604811,0.0006720532482604811,4.140924200497356,4.140924200497356,4.140924200497356,4.140924200497356,83.0,83.0,83.0,83.0,1,5
0,0.004753677211142001,0.004753677211142001,0.004753677211142001,0.004753677211142001,68.0,68.0,68.0,68.0,0.0037669104339292177,0.0037669104339292177,0.0037669104339292177,0.0037669104339292177,2.259685485892589e-05,2.259685485892589e-05,2.259685485892589e-05,2.259685485892589e-05,0.7263334885157544,0.7263334885157544,0.7263334885157544,0.7263334885157544,92.0,92.0,92.0,92.0,1,4
0,0.005083591026056602,0.005083591026056602,0.005083591026056602,0.005083591026056602,76.0,76.0,76.0,76.0,0.0038525468822314377,0.0038525468822314377,0.0038525468822314377,0.0038525468822314377,2.5842176974574333e-05,2.5842176974574333e-05,2.5842176974574333e-05,2.5842176974574333e-05,0.8582803283914026,0.8582803283914026,0.8582803283914026,0.8582803283914026,98.0,98.0,98.0,98.0,1,6
0,0.006375890974839054,0.006375890974839054,0.006375890974839054,0.006375890974839054,52.0,52.0,52.0,52.0,0.004692499750020892,0.004692499750020892,0.004692499750020892,0.004692499750020892,4.063381184209614e-05,4.063381184209614e-05,4.063381184209614e-05,4.063381184209614e-05,0.9250569495172556,0.9250569495172556,0.9250569495172556,0.9250569495172556,94.0,94.0,94.0,94.0,1,2
0,0.008645932611029014,0.008645932611029014,0.008645932611029014,0.008645932611029014,98.0,98.0,98.0,98.0,0.0069590155948780555,0.0069590155948780555,0.0069590155948780555,0.0069590155948780555,7.474862472857127e-05,7.474862472857127e-05,7.474862472857127e-05,7.474862472857127e-05,2.0311171930074052,2.0311171930074052,2.0311171930074052,2.0311171930074052,120.0,120.0,120.0,120.0,1,1
0,0.0032445358152555664,0.0032445358152555664,0.0032445358152555664,0.0032445358152555664,59.0,59.0,59.0,59.0,0.0024731147710570027,0.0024731147710570027,0.0024731147710570027,0.0024731147710570027,1.0521589131953572e-05,1.0521589131953572e-05,1.0521589131953572e-05,1.0521589131953572e-05,0.4733665330021831,0.4733665330021831,0.4733665330021831,0.4733665330021831,91.0,91.0,91.0,91.0,1,3
0,0.00896928832255858,0.00896928832255858,0.00896928832255858,0.00896928832255858,62.0,62.0,62.0,62.0,0.005642529756466877,0.005642529756466877,0.005642529756466877,0.005642529756466877,8.044117832417976e-05,8.044117832417976e-05,8.044117832417976e-05,8.044117832417976e-05,1.2399807386959312,1.2399807386959312,1.2399807386959312,1.2399807386959312,99.0,99.0,99.0,99.0,1,2
0,0.021211908210860466,0.021211908210860466,0.021211908210860466,0.021211908210860466,72.0,72.0,72.0,72.0,0.015231907258182797,0.015231907258182797,0.015231907258182797,0.015231907258182797,0.00044994456727101686,0.00044994456727101686,0.00044994456727101686,0.00044994456727101686,3.3132267539978906,3.3132267539978906,3.3132267539978906,3.3132267539978906,98.0,98.0,98.0,98.0,1,5
0,0.005088826579820646,0.005088826579820646,0.005088826579820646,0.005088826579820646,85.0,85.0,85.0,85.0,0.003825850946741477,0.003825850946741477,0.003825850946741477,0.003825850946741477,2.5894149055920865e-05,2.5894149055920865e-05,2.5894149055920865e-05,2.5894149055920865e-05,0.974848074951083,0.974848074951083,0.974848074951083,0.974848074951083,104.0,104.0,104.0,104.0,1,6
0,0.005014083323534376,0.005014083323534376,0.005014083323534376,0.005014083323534376,68.0,68.0,68.0,68.0,0.003578125727834765,0.003578125727834765,0.003578125727834765,0.003578125727834765,2.5141031444386156e-05,2.5141031444386156e-05,2.5141031444386156e-05,2.5141031444386156e-05,0.7168318845652627,0.7168318845652627,0.7168318845652627,0.7168318845652627,90.0,90.0,90.0,90.0,1,3
0,0.007668861515842891,0.007668861515842891,0.007668861515842891,0.007668861515842891,94.0,94.0,94.0,94.0,0.005808561508881303,0.005808561508881303,0.005808561508881303,0.005808561508881303,5.881038137663163e-05,5.881038137663163e-05,5.881038137663163e-05,5.881038137663163e-05,1.5852263129374558,1.5852263129374558,1.5852263129374558,1.5852263129374558,119.0,119.0,119.0,119.0,1,1
0,0.004315095264475723,0.004315095264475723,0.004315095264475723,0.004315095264475723,65.0,65.0,65.0,65.0,0.00341693963280574,0.00341693963280574,0.00341693963280574,0.00341693963280574,1.8619681172365728e-05,1.8619681172365728e-05,1.8619681172365728e-05,1.8619681172365728e-05,0.6850766447354582,0.6850766447354582,0.6850766447354582,0.6850766447354582,86.0,86.0,86.0,86.0,1,4
0,0.00578684042758978,0.00578684042758978,0.00578684042758978,0.00578684042758978,78.0,78.0,78.0,78.0,0.0042028653665709915,0.0042028653665709915,0.0042028653665709915,0.0042028653665709915,3.347997832105204e-05,3.347997832105204e-05,3.347997832105204e-05,3.347997832105204e-05,0.9689392324934532,0.9689392324934532,0.9689392324934532,0.9689392324934532,110.0,110.0,110.0,110.0,1,6
0,0.013259800497876522,0.013259800497876522,0.013259800497876522,0.013259800497876522,65.0,65.0,65.0,65.0,0.008061861634318681,0.008061861634318681,0.008061861634318681,0.008061861634318681,0.00017580964051345317,0.00017580964051345317,0.00017580964051345317,0.00017580964051345317,1.6169538677173343,1.6169538677173343,1.6169538677173343,1.6169538677173343,107.0,107.0,107.0,107.0,1,2
0,0.01133602374560865,0.01133602374560865,0.01133602374560865,0.01133602374560865,103.0,103.0,103.0,103.0,0.008828040323165384,0.008828040323165384,0.008828040323165384,0.008828040323165384,0.000128403781945713,0.000128403781945713,0.000128403781945713,0.000128403781945713,2.4727572141932797,2.4727572141932797,2.4727572141932797,2.4727572141932797,123.0,123.0,123.0,123.0,1,1
0,0.0248650637238342,0.0248650637238342,0.0248650637238342,0.0248650637238342,73.0,73.0,73.0,73.0,0.01999421468193159,0.01999421468193159,0.01999421468193159,0.01999421468193159,0.0006182685272204759,0.0006182685272204759,0.0006182685272204759,0.0006182685272204759,4.208838906702875,4.208838906702875,4.208838906702875,4.208838906702875,92.0,92.0,92.0,92.0,1,5
0,0.003111405455608546,0.003111405455608546,0.003111405455608546,0.003111405455608546,61.0,61.0,61.0,61.0,0.0023850590315331855,0.0023850590315331855,0.0023850590315331855,0.0023850590315331855,9.67556849882386e-06,9.67556849882386e-06,9.67556849882386e-06,9.67556849882386e-06,0.4911017888951157,0.4911017888951157,0.4911017888951157,0.4911017888951157,96.0,96.0,96.0,96.0,1,3
0,0.0038368245527371607,0.0038368245527371607,0.0038368245527371607,0.0038368245527371607,72.0,72.0,72.0,72.0,0.0030823254076692273,0.0030823254076692273,0.0030823254076692273,0.0030823254076692273,1.4719999755579823e-05,1.4719999755579823e-05,1.4719999755579823e-05,1.4719999755579823e-05,0.657004219957063,0.657004219957063,0.657004219957063,0.657004219957063,109.0,109.0,109.0,109.0,1,4
0,0.00785721491474507,0.00785721491474507,0.00785721491474507,0.00785721491474507,96.0,96.0,96.0,96.0,0.006260120224736345,0.006260120224736345,0.006260120224736345,0.006260120224736345,6.172180931453671e-05,6.172180931453671e-05,6.172180931453671e-05,6.172180931453671e-05,1.8024839796635512,1.8024839796635512,1.8024839796635512,1.8024839796635512,131.0,131.0,131.0,131.0,1,1
0,0.013838795755692669,0.013838795755692669,0.013838795755692669,0.013838795755692669,62.0,62.0,62.0,62.0,0.009582738652180822,0.009582738652180822,0.009582738652180822,0.009582738652180822,0.0001914663453738632,0.0001914663453738632,0.0001914663453738632,0.0001914663453738632,1.9722613539790592,1.9722613539790592,1.9722613539790592,1.9722613539790592,96.0,96.0,96.0,96.0,1,2
0,0.003835534521327914,0.003835534521327914,0.003835534521327914,0.003835534521327914,73.0,73.0,73.0,73.0,0.0030163832934804262,0.0030163832934804262,0.0030163832934804262,0.0030163832934804262,1.4711260704203322e-05,1.4711260704203322e-05,1.4711260704203322e-05,1.4711260704203322e-05,0.6441118706751467,0.6441118706751467,0.6441118706751467,0.6441118706751467,102.0,102.0,102.0,102.0,1,4
0,0.004657379198812985,0.004657379198812985,0.004657379198812985,0.004657379198812985,80.0,80.0,80.0,80.0,0.0036960308599015123,0.0036960308599015123,0.0036960308599015123,0.0036960308599015123,2.1689491213133037e-05,2.1689491213133037e-05,2.1689491213133037e-05,2.1689491213133037e-05,0.8840171387919873,0.8840171387919873,0.8840171387919873,0.8840171387919873,98.0,98.0,98.0,98.0,1,6
0,0.026564682920353928,0.026564682920353928,0.026564682920353928,0.026564682920353928,69.0,69.0,69.0,69.0,0.021215898454549843,0.021215898454549843,0.021215898454549843,0.021215898454549843,0.0007056538188873792,0.0007056538188873792,0.0007056538188873792,0.0007056538188873792,4.454372265580572,4.454372265580572,4.454372265580572,4.454372265580572,91.0,91.0,91.0,91.0,1,5
0,0.002985524364032192,0.002985524364032192,0.002985524364032192,0.002985524364032192,69.0,69.0,69.0,69.0,0.002217889906282785,0.002217889906282785,0.002217889906282785,0.002217889906282785,8.91207558173699e-06,8.91207558173699e-06,8.91207558173699e-06,8.91207558173699e-06,0.4699754798360025,0.4699754798360025,0.4699754798360025,0.4699754798360025,102.0,102.0,102.0,102.0,1,3
0,0.0036518376858379904,0.0036518376858379904,0.0036518376858379904,0.0036518376858379904,65.0,65.0,65.0,65.0,0.0028958889509580854,0.0028958889509580854,0.0028958889509580854,0.0028958889509580854,1.3331551113277772e-05,1.3331551113277772e-05,1.3331551113277772e-05,1.3331551113277772e-05,0.5759311495642581,0.5759311495642581,0.5759311495642581,0.5759311495642581,92.0,92.0,92.0,92.0,1,4
0,0.008956111459547032,0.008956111459547032,0.008956111459547032,0.008956111459547032,102.0,102.0,102.0,102.0,0.006769946721332615,0.006769946721332615,0.006769946721332615,0.006769946721332615,8.02107857486105e-05,8.02107857486105e-05,8.02107857486105e-05,8.02107857486105e-05,2.01291846427959,2.01291846427959,2.01291846427959,2.01291846427959,127.0,127.0,127.0,127.0,1,1
0,0.002960847865120744,0.002960847865120744,0.002960847865120744,0.002960847865120744,70.0,70.0,70.0,70.0,0.0023797717185075106,0.0023797717185075106,0.0023797717185075106,0.0023797717185075106,8.75385840210332e-06,8.75385840210332e-06,8.75385840210332e-06,8.75385840210332e-06,0.5185230961442037,0.5185230961442037,0.5185230961442037,0.5185230961442037,99.0,99.0,99.0,99.0,1,3
0,0.012414821070663168,0.012414821070663168,0.012414821070663168,0.012414821070663168,66.0,66.0,66.0,66.0,0.008447903930120834,0.008447903930120834,0.008447903930120834,0.008447903930120834,0.00015411650645098037,0.00015411650645098037,0.00015411650645098037,0.00015411650645098037,1.883604935608182,1.883604935608182,1.883604935608182,1.883604935608182,100.0,100.0,100.0,100.0,1,2
0,0.004865666129536546,0.004865666129536546,0.004865666129536546,0.004865666129536546,101.0,101.0,101.0,101.0,0.003870768550920171,0.003870768550920171,0.003870768550920171,0.003870768550920171,2.367043865647428e-05,2.367043865647428e-05,2.367043865647428e-05,2.367043865647428e-05,1.0426198857891593,1.0426198857891593,1.0426198857891593,1.0426198857891593,125.0,125.0,125.0,125.0,1,6
0,0.01885358973088886,0.01885358973088886,0.01885358973088886,0.01885358973088886,76.0,76.0,76.0,76.0,0.013637028549335194,0.013637028549335194,0.013637028549335194,0.013637028549335194,0.0003554506716619473,0.0003554506716619473,0.0003554506716619473,0.0003554506716619473,3.1128174229865344,3.1128174229865344,3.1128174229865344,3.1128174229865344,106.0,106.0,106.0,106.0,1,5
0,0.005129910437398054,0.005129910437398054,0.005129910437398054,0.005129910437398054,88.0,88.0,88.0,88.0,0.0038966756674720677,0.0038966756674720677,0.0038966756674720677,0.0038966756674720677,2.6311688919512555e-05,2.6311688919512555e-05,2.6311688919512555e-05,2.6311688919512555e-05,1.0157488294687338,1.0157488294687338,1.0157488294687338,1.0157488294687338,120.0,120.0,120.0,120.0,1,6
0,0.011039654795289448,0.011039654795289448,0.011039654795289448,0.011039654795289448,63.0,63.0,63.0,63.0,0.006614124159060469,0.006614124159060469,0.006614124159060469,0.006614124159060469,0.00012185508200882541,0.00012185508200882541,0.00012185508200882541,0.00012185508200882541,1.4701554416743006,1.4701554416743006,1.4701554416743006,1.4701554416743006,91.0,91.0,91.0,91.0,1,2
0,0.023142348502420335,0.023142348502420335,0.023142348502420335,0.023142348502420335,74.0,74.0,74.0,74.0,0.01751897679222737,0.01751897679222737,0.01751897679222737,0.01751897679222737,0.0005355680999234951,0.0005355680999234951,0.0005355680999234951,0.0005355680999234951,3.7086870108017296,3.7086870108017296,3.7086870108017296,3.7086870108017296,97.0,97.0,97.0,97.0,1,5
0,0.00290460383220134,0.00290460383220134,0.00290460383220134,0.00290460383220134,75.0,75.0,75.0,75.0,0.00220112652842912,0.00220112652842912,0.00220112652842912,0.00220112652842912,8.436710014233339e-06,8.436710014233339e-06,8.436710014233339e-06,8.436710014233339e-06,0.4748487841798623,0.4748487841798623,0.4748487841798623,0.4748487841798623,111.0,111.0,111.0,111.0,1,3
0,0.005548293795033139,0.005548293795033139,0.005548293795033139,0.005548293795033139,69.0,69.0,69.0,69.0,0.004430179768678496,0.004430179768678496,0.004430179768678496,0.004430179768678496,3.078352924860815e-05,3.078352924860815e-05,3.078352924860815e-05,3.078352924860815e-05,0.9209327599361442,0.9209327599361442,0.9209327599361442,0.9209327599361442,108.0,108.0,108.0,108.0,1,4
0,0.007810927627315663,0.007810927627315663,0.007810927627315663,0.007810927627315663,97.0,97.0,97.0,97.0,0.006132969761641405,0.006132969761641405,0.006132969761641405,0.006132969761641405,6.100432869544495e-05,6.100432869544495e-05,6.100432869544495e-05,6.100432869544495e-05,1.5046403344074801,1.5046403344074801,1.5046403344074801,1.5046403344074801,114.0,114.0,114.0,114.0,1,1
0,0.011270114858384448,0.011270114858384448,0.011270114858384448,0.011270114858384448,98.0,98.0,98.0,98.0,0.008710158342559218,0.008710158342559218,0.008710158342559218,0.008710158342559218,0.0001269957020921683,0.0001269957020921683,0.0001269957020921683,0.0001269957020921683,2.4476249630575797,2.4476249630575797,2.4476249630575797,2.4476249630575797,118.0,118.0,118.0,118.0,1,1
0,0.006191546062703234,0.006191546062703234,0.006191546062703234,0.006191546062703234,88.0,88.0,88.0,88.0,0.004696153821275389,0.004696153821275389,0.004696153821275389,0.004696153821275389,3.8332980354566026e-05,3.8332980354566026e-05,3.8332980354566026e-05,3.8332980354566026e-05,1.2637705690489676,1.2637705690489676,1.2637705690489676,1.2637705690489676,117.0,117.0,117.0,117.0,1,6
0,0.0033512455406259265,0.0033512455406259265,0.0033512455406259265,0.0033512455406259265,61.0,61.0,61.0,61.0,0.0025469925248908743,0.0025469925248908743,0.0025469925248908743,0.0025469925248908743,1.1230777187203624e-05,1.1230777187203624e-05,1.1230777187203624e-05,1.1230777187203624e-05,0.5237291445985108,0.5237291445985108,0.5237291445985108,0.5237291445985108,116.0,116.0,116.0,116.0,1,3
0,0.014726311829620135,0.014726311829620135,0.014726311829620135,0.014726311829620135,68.0,68.0,68.0,68.0,0.011347585673273364,0.011347585673273364,0.011347585673273364,0.011347585673273364,0.00021686331183624856,0.00021686331183624856,0.00021686331183624856,0.00021686331183624856,2.353248482248383,2.353248482248383,2.353248482248383,2.353248482248383,83.0,83.0,83.0,83.0,1,5
0,0.005352452310623508,0.005352452310623508,0.005352452310623508,0.005352452310623508,67.0,67.0,67.0,67.0,0.00430956964994084,0.00430956964994084,0.00430956964994084,0.00430956964994084,2.8640877677636105e-05,2.8640877677636105e-05,2.8640877677636105e-05,2.8640877677636105e-05,0.8314357942874887,0.8314357942874887,0.8314357942874887,0.8314357942874887,94.0,94.0,94.0,94.0,1,4
0,0.010299102709331312,0.010299102709331312,0.010299102709331312,0.010299102709331312,65.0,65.0,65.0,65.0,0.0053275114103525124,0.0053275114103525124,0.0053275114103525124,0.0053275114103525124,0.00010603988532588218,0.00010603988532588218,0.00010603988532588218,0.00010603988532588218,1.248895728576854,1.248895728576854,1.248895728576854,1.248895728576854,96.0,96.0,96.0,96.0,1,2
0,0.00607645291282481,0.00607645291282481,0.00607645291282481,0.00607645291282481,94.0,94.0,94.0,94.0,0.0046722106308165635,0.0046722106308165635,0.0046722106308165635,0.0046722106308165635,3.692260889459726e-05,3.692260889459726e-05,3.692260889459726e-05,3.692260889459726e-05,1.3417128348182192,1.3417128348182192,1.3417128348182192,1.3417128348182192,125.0,125.0,125.0,125.0,1,1
0,0.005881770514394959,0.005881770514394959,0.005881770514394959,0.005881770514394959,71.0,71.0,71.0,71.0,0.004675959878766785,0.004675959878766785,0.004675959878766785,0.004675959878766785,3.459353511197909e-05,3.459353511197909e-05,3.459353511197909e-05,3.459353511197909e-05,0.9877210440074361,0.9877210440074361,0.9877210440074361,0.9877210440074361,97.0,97.0,97.0,97.0,1,4
0,0.003486289832891467,0.003486289832891467,0.003486289832891467,0.003486289832891467,68.0,68.0,68.0,68.0,0.002616587605215365,0.002616587605215365,0.002616587605215365,0.002616587605215365,1.2154117413993503e-05,1.2154117413993503e-05,1.2154117413993503e-05,1.2154117413993503e-05,0.5411016232291983,0.5411016232291983,0.5411016232291983,0.5411016232291983,101.0,101.0,101.0,101.0,1,3
0,0.004274293310185868,0.004274293310185868,0.004274293310185868,0.004274293310185868,86.0,86.0,86.0,86.0,0.00341742758804183,0.00341742758804183,0.00341742758804183,0.00341742758804183,1.8269395924223193e-05,1.8269395924223193e-05,1.8269395924223193e-05,1.8269395924223193e-05,0.8662980641074229,0.8662980641074229,0.8662980641074229,0.8662980641074229,123.0,123.0,123.0,123.0,1,6
0,0.007100544700102797,0.007100544700102797,0.007100544700102797,0.007100544700102797,58.0,58.0,58.0,58.0,0.004542420629336345,0.004542420629336345,0.004542420629336345,0.004542420629336345,5.041727551462779e-05,5.041727551462779e-05,5.041727551462779e-05,5.041727551462779e-05,0.9085398379017275,0.9085398379017275,0.9085398379017275,0.9085398379017275,93.0,93.0,93.0,93.0,1,2
0,0.016322053174369914,0.016322053174369914,0.016322053174369914,0.016322053174369914,73.0,73.0,73.0,73.0,0.012882866942937943,0.012882866942937943,0.012882866942937943,0.012882866942937943,0.0002663404688194364,0.0002663404688194364,0.0002663404688194364,0.0002663404688194364,2.717089866670446,2.717089866670446,2.717089866670446,2.717089866670446,108.0,108.0,108.0,108.0,1,5
0,0.008307080290333595,0.008307080290333595,0.008307080290333595,0.008307080290333595,83.0,83.0,83.0,83.0,0.006214591921153554,0.006214591921153554,0.006214591921153554,0.006214591921153554,6.900657217108048e-05,6.900657217108048e-05,6.900657217108048e-05,6.900657217108048e-05,1.7226910133315443,1.7226910133315443,1.7226910133315443,1.7226910133315443,133.0,133.0,133.0,133.0,1,1
0,0.003942162785686868,0.003942162785686868,0.003942162785686868,0.003942162785686868,63.0,63.0,63.0,63.0,0.0029958113795684636,0.0029958113795684636,0.0029958113795684636,0.0029958113795684636,1.553684338229177e-05,1.553684338229177e-05,1.553684338229177e-05,1.553684338229177e-05,0.6055676171915643,0.6055676171915643,0.6055676171915643,0.6055676171915643,93.0,93.0,93.0,93.0,1,3
0,0.022125026101018776,0.022125026101018776,0.022125026101018776,0.022125026101018776,70.0,70.0,70.0,70.0,0.016823305855258708,0.016823305855258708,0.016823305855258708,0.016823305855258708,0.0004895126873303311,0.0004895126873303311,0.0004895126873303311,0.0004895126873303311,3.770660006253604,3.770660006253604,3.770660006253604,3.770660006253604,96.0,96.0,96.0,96.0,1,5
0,0.01858886377862568,0.01858886377862568,0.01858886377862568,0.01858886377862568,80.0,80.0,80.0,80.0,0.010522315817460028,0.010522315817460028,0.010522315817460028,0.010522315817460028,0.00034554362573099953,0.00034554362573099953,0.00034554362573099953,0.00034554362573099953,2.8439955639021646,2.8439955639021646,2.8439955639021646,2.8439955639021646,99.0,99.0,99.0,99.0,1,2
0,0.004355375616599341,0.004355375616599341,0.004355375616599341,0.004355375616599341,72.0,72.0,72.0,72.0,0.0034850002281949567,0.0034850002281949567,0.0034850002281949567,0.0034850002281949567,1.8969135603470924e-05,1.8969135603470924e-05,1.8969135603470924e-05,1.8969135603470924e-05,0.7072992904893118,0.7072992904893118,0.7072992904893118,0.7072992904893118,99.0,99.0,99.0,99.0,1,4
0,0.004969864951795673,0.004969864951795673,0.004969864951795673,0.004969864951795673,77.0,77.0,77.0,77.0,0.0035920754904747304,0.0035920754904747304,0.0035920754904747304,0.0035920754904747304,2.4687777115178352e-05,2.4687777115178352e-05,2.4687777115178352e-05,2.4687777115178352e-05,0.9244080610730119,0.9244080610730119,0.9244080610730119,0.9244080610730119,114.0,114.0,114.0,114.0,1,6
0,0.005861338435502349,0.005861338435502349,0.005861338435502349,0.005861338435502349,69.0,69.0,69.0,69.0,0.0036829581268975186,0.0036829581268975186,0.0036829581268975186,0.0036829581268975186,3.4355269286833384e-05,3.4355269286833384e-05,3.4355269286833384e-05,3.4355269286833384e-05,0.841347796680433,0.841347796680433,0.841347796680433,0.841347796680433,98.0,98.0,98.0,98.0,1,2
0,0.006185739182718893,0.006185739182718893,0.006185739182718893,0.006185739182718893,79.0,79.0,79.0,79.0,0.0043607966005132035,0.0043607966005132035,0.0043607966005132035,0.0043607966005132035,3.826280443128918e-05,3.826280443128918e-05,3.826280443128918e-05,3.826280443128918e-05,1.0398350692338112,1.0398350692338112,1.0398350692338112,1.0398350692338112,110.0,110.0,110.0,110.0,1,6
0,0.0074569955138309805,0.0074569955138309805,0.0074569955138309805,0.0074569955138309805,58.0,58.0,58.0,58.0,0.005864716477316243,0.005864716477316243,0.005864716477316243,0.005864716477316243,5.56043054325874e-05,5.56043054325874e-05,5.56043054325874e-05,5.56043054325874e-05,1.1587012643246184,1.1587012643246184,1.1587012643246184,1.1587012643246184,100.0,100.0,100.0,100.0,1,4
0,0.003634391614380652,0.003634391614380652,0.003634391614380652,0.003634391614380652,68.0,68.0,68.0,68.0,0.0027571325133611503,0.0027571325133611503,0.0027571325133611503,0.0027571325133611503,1.3208732603660795e-05,1.3208732603660795e-05,1.3208732603660795e-05,1.3208732603660795e-05,0.5749585200093241,0.5749585200093241,0.5749585200093241,0.5749585200093241,105.0,105.0,105.0,105.0,1,3
0,0.007170412816956853,0.007170412816956853,0.007170412816956853,0.007170412816956853,88.0,88.0,88.0,88.0,0.0055561074634540505,0.0055561074634540505,0.0055561074634540505,0.0055561074634540505,5.1409388361955715e-05,5.1409388361955715e-05,5.1409388361955715e-05,5.1409388361955715e-05,1.4893594003521589,1.4893594003521589,1.4893594003521589,1.4893594003521589,111.0,111.0,111.0,111.0,1,1
0,0.017977951566431186,0.017977951566431186,0.017977951566431186,0.017977951566431186,75.0,75.0,75.0,75.0,0.014303643808244915,0.014303643808244915,0.014303643808244915,0.014303643808244915,0.00032320310194531866,0.00032320310194531866,0.00032320310194531866,0.00032320310194531866,3.178163018270677,3.178163018270677,3.178163018270677,3.178163018270677,104.0,104.0,104.0,104.0,1,5
0,0.012632143727545142,0.012632143727545142,0.012632143727545142,0.012632143727545142,61.0,61.0,61.0,61.0,0.007921292787582818,0.007921292787582818,0.007921292787582818,0.007921292787582818,0.0001594917774556789,0.0001594917774556789,0.0001594917774556789,0.0001594917774556789,1.7804015974070797,1.7804015974070797,1.7804015974070797,1.7804015974070797,88.0,88.0,88.0,88.0,1,2
0,0.004177397993635254,0.004177397993635254,0.004177397993635254,0.004177397993635254,59.0,59.0,59.0,59.0,0.003129559062558155,0.003129559062558155,0.003129559062558155,0.003129559062558155,1.745064285444824e-05,1.745064285444824e-05,1.745064285444824e-05,1.745064285444824e-05,0.6288893325214316,0.6288893325214316,0.6288893325214316,0.6288893325214316,96.0,96.0,96.0,96.0,1,3
0,0.007236158199278305,0.007236158199278305,0.007236158199278305,0.007236158199278305,106.0,106.0,106.0,106.0,0.005785500130223747,0.005785500130223747,0.005785500130223747,0.005785500130223747,5.235449952304991e-05,5.235449952304991e-05,5.235449952304991e-05,5.235449952304991e-05,1.6898047888617587,1.6898047888617587,1.6898047888617587,1.6898047888617587,126.0,126.0,126.0,126.0,1,1
0,0.017556632004762235,0.017556632004762235,0.017556632004762235,0.017556632004762235,66.0,66.0,66.0,66.0,0.013346709936672918,0.013346709936672918,0.013346709936672918,0.013346709936672918,0.00030816046068866596,0.00030816046068866596,0.00030816046068866596,0.00030816046068866596,2.7268313909126927,2.7268313909126927,2.7268313909126927,2.7268313909126927,85.0,85.0,85.0,85.0,1,5
0,0.006332987908056012,0.006332987908056012,0.006332987908056012,0.006332987908056012,72.0,72.0,72.0,72.0,0.004710041395542834,0.004710041395542834,0.004710041395542834,0.004710041395542834,4.0102127963229493e-05,4.0102127963229493e-05,4.0102127963229493e-05,4.0102127963229493e-05,0.9694581513190518,0.9694581513190518,0.9694581513190518,0.9694581513190518,104.0,104.0,104.0,104.0,1,4
0,0.00480565968432055,0.00480565968432055,0.00480565968432055,0.00480565968432055,86.0,86.0,86.0,86.0,0.003615002368933082,0.003615002368933082,0.003615002368933082,0.003615002368933082,2.309342576942577e-05,2.309342576942577e-05,2.309342576942577e-05,2.309342576942577e-05,0.9469381401186597,0.9469381401186597,0.9469381401186597,0.9469381401186597,109.0,109.0,109.0,109.0,1,6
0,0.007102445209375407,0.007102445209375407,0.007102445209375407,0.007102445209375407,69.0,69.0,69.0,69.0,0.005432883282506847,0.005432883282506847,0.005432883282506847,0.005432883282506847,5.043902029385706e-05,5.043902029385706e-05,5.043902029385706e-05,5.043902029385706e-05,1.0894968632099933,1.0894968632099933,1.0894968632099933,1.0894968632099933,98.0,98.0,98.0,98.0,1,4
0,0.0070732630196521,0.0070732630196521,0.0070732630196521,0.0070732630196521,85.0,85.0,85.0,85.0,0.005304018795204488,0.005304018795204488,0.005304018795204488,0.005304018795204488,5.0029870068480545e-05,5.0029870068480545e-05,5.0029870068480545e-05,5.0029870068480545e-05,1.4369771737079136,1.4369771737079136,1.4369771737079136,1.4369771737079136,114.0,114.0,114.0,114.0,1,1
0,0.007400516765651234,0.007400516765651234,0.007400516765651234,0.007400516765651234,56.0,56.0,56.0,56.0,0.004869906943147159,0.004869906943147159,0.004869906943147159,0.004869906943147159,5.4764276009022955e-05,5.4764276009022955e-05,5.4764276009022955e-05,5.4764276009022955e-05,1.0144886933462676,1.0144886933462676,1.0144886933462676,1.0144886933462676,90.0,90.0,90.0,90.0,1,2
0,0.005170379550068004,0.005170379550068004,0.005170379550068004,0.005170379550068004,93.0,93.0,93.0,93.0,0.0037516199275965468,0.0037516199275965468,0.0037516199275965468,0.0037516199275965468,2.673177223765059e-05,2.673177223765059e-05,2.673177223765059e-05,2.673177223765059e-05,1.0566246375160828,1.0566246375160828,1.0566246375160828,1.0566246375160828,118.0,118.0,118.0,118.0,1,6
0,0.018070185515165024,0.018070185515165024,0.018070185515165024,0.018070185515165024,78.0,78.0,78.0,78.0,0.013315311790371235,0.013315311790371235,0.013315311790371235,0.013315311790371235,0.00032651401628518915,0.00032651401628518915,0.00032651401628518915,0.00032651401628518915,3.2724407791268355,3.2724407791268355,3.2724407791268355,3.2724407791268355,99.0,99.0,99.0,99.0,1,5
0,0.0036737107191331516,0.0036737107191331516,0.0036737107191331516,0.0036737107191331516,61.0,61.0,61.0,61.0,0.002689661554596851,0.002689661554596851,0.002689661554596851,0.002689661554596851,1.349603822229301e-05,1.349603822229301e-05,1.349603822229301e-05,1.349603822229301e-05,0.5262402126468739,0.5262402126468739,0.5262402126468739,0.5262402126468739,96.0,96.0,96.0,96.0,1,3
0,0.004813538326888046,0.004813538326888046,0.004813538326888046,0.004813538326888046,67.0,67.0,67.0,67.0,0.003635011664650711,0.003635011664650711,0.003635011664650711,0.003635011664650711,2.3167638365800044e-05,2.3167638365800044e-05,2.3167638365800044e-05,2.3167638365800044e-05,0.7637330112988125,0.7637330112988125,0.7637330112988125,0.7637330112988125,93.0,93.0,93.0,93.0,1,4
0,0.0036444965183673244,0.0036444965183673244,0.0036444965183673244,0.0036444965183673244,68.0,68.0,68.0,68.0,0.0029189720254501213,0.0029189720254501213,0.0029189720254501213,0.0029189720254501213,1.3280521156607164e-05,1.3280521156607164e-05,1.3280521156607164e-05,1.3280521156607164e-05,0.5873811089559459,0.5873811089559459,0.5873811089559459,0.5873811089559459,98.0,98.0,98.0,98.0,1,3
0,0.003963920023606158,0.003963920023606158,0.003963920023606158,0.003963920023606158,73.0,73.0,73.0,73.0,0.003149077406350834,0.003149077406350834,0.003149077406350834,0.003149077406350834,1.5711846602535525e-05,1.5711846602535525e-05,1.5711846602535525e-05,1.5711846602535525e-05,0.6646266023079361,0.6646266023079361,0.6646266023079361,0.6646266023079361,98.0,98.0,98.0,98.0,1,6
0,0.00939264634496545,0.00939264634496545,0.00939264634496545,0.00939264634496545,106.0,106.0,106.0,106.0,0.006987844576996765,0.006987844576996765,0.006987844576996765,0.006987844576996765,8.822127950370274e-05,8.822127950370274e-05,8.822127950370274e-05,8.822127950370274e-05,2.1060642733250847,2.1060642733250847,2.1060642733250847,2.1060642733250847,121.0,121.0,121.0,121.0,1,1
0,0.006720435218379362,0.006720435218379362,0.006720435218379362,0.006720435218379362,67.0,67.0,67.0,67.0,0.004716506305582485,0.004716506305582485,0.004716506305582485,0.004716506305582485,4.5117325002124634e-05,4.5117325002124634e-05,4.5117325002124634e-05,4.5117325002124634e-05,0.9269928791236745,0.9269928791236745,0.9269928791236745,0.9269928791236745,102.0,102.0,102.0,102.0,1,2
0,0.023206176549917416,0.023206176549917416,0.023206176549917416,0.023206176549917416,72.0,72.0,72.0,72.0,0.017455106571359003,0.017455106571359003,0.017455106571359003,0.017455106571359003,0.0005383145636883027,0.0005383145636883027,0.0005383145636883027,0.0005383145636883027,3.8194247588632706,3.8194247588632706,3.8194247588632706,3.8194247588632706,102.0,102.0,102.0,102.0,1,5
0,0.0030039448790664105,0.0030039448790664105,0.0030039448790664105,0.0030039448790664105,73.0,73.0,73.0,73.0,0.002338279840577093,0.002338279840577093,0.002338279840577093,0.002338279840577093,9.023118165853269e-06,9.023118165853269e-06,9.023118165853269e-06,9.023118165853269e-06,0.4762647121396725,0.4762647121396725,0.4762647121396725,0.4762647121396725,106.0,106.0,106.0,106.0,1,3
0,0.006107182072888776,0.006107182072888776,0.006107182072888776,0.006107182072888776,78.0,78.0,78.0,78.0,0.004247031567257421,0.004247031567257421,0.004247031567257421,0.004247031567257421,3.7297672816295664e-05,3.7297672816295664e-05,3.7297672816295664e-05,3.7297672816295664e-05,0.8883320852029024,0.8883320852029024,0.8883320852029024,0.8883320852029024,105.0,105.0,105.0,105.0,1,2
0,0.005289260716049766,0.005289260716049766,0.005289260716049766,0.005289260716049766,78.0,78.0,78.0,78.0,0.004045831399910565,0.004045831399910565,0.004045831399910565,0.004045831399910565,2.797611354640651e-05,2.797611354640651e-05,2.797611354640651e-05,2.797611354640651e-05,0.9995861099404251,0.9995861099404251,0.9995861099404251,0.9995861099404251,113.0,113.0,113.0,113.0,1,6
0,0.005319543095610044,0.005319543095610044,0.005319543095610044,0.005319543095610044,72.0,72.0,72.0,72.0,0.003991726803403857,0.003991726803403857,0.003991726803403857,0.003991726803403857,2.829738029112713e-05,2.829738029112713e-05,2.829738029112713e-05,2.829738029112713e-05,0.8738098620540335,0.8738098620540335,0.8738098620540335,0.8738098620540335,98.0,98.0,98.0,98.0,1,4
0,0.021178690381263222,0.021178690381263222,0.021178690381263222,0.021178690381263222,68.0,68.0,68.0,68.0,0.016644325010848955,0.016644325010848955,0.016644325010848955,0.016644325010848955,0.00044851948153347464,0.00044851948153347464,0.00044851948153347464,0.00044851948153347464,3.479778842845765,3.479778842845765,3.479778842845765,3.479778842845765,89.0,89.0,89.0,89.0,1,5
0,0.008815794866804687,0.008815794866804687,0.008815794866804687,0.008815794866804687,107.0,107.0,107.0,107.0,0.0070166613773247,0.0070166613773247,0.0070166613773247,0.0070166613773247,7.770988880598798e-05,7.770988880598798e-05,7.770988880598798e-05,7.770988880598798e-05,2.0294272800579787,2.0294272800579787,2.0294272800579787,2.0294272800579787,129.0,129.0,129.0,129.0,1,1
0,0.008472663130386186,0.008472663130386186,0.008472663130386186,0.008472663130386186,72.0,72.0,72.0,72.0,0.006030290535333611,0.006030290535333611,0.006030290535333611,0.006030290535333611,7.178365252981768e-05,7.178365252981768e-05,7.178365252981768e-05,7.178365252981768e-05,1.3000425433228617,1.3000425433228617,1.3000425433228617,1.3000425433228617,97.0,97.0,97.0,97.0,1,2
0,0.009441193737977444,0.009441193737977444,0.009441193737977444,0.009441193737977444,107.0,107.0,107.0,107.0,0.007518719394689186,0.007518719394689186,0.007518719394689186,0.007518719394689186,8.913182944850993e-05,8.913182944850993e-05,8.913182944850993e-05,8.913182944850993e-05,2.230355693057123,2.230355693057123,2.230355693057123,2.230355693057123,136.0,136.0,136.0,136.0,1,1
0,0.0052686275710903735,0.0052686275710903735,0.0052686275710903735,0.0052686275710903735,90.0,90.0,90.0,90.0,0.003886876573228887,0.003886876573228887,0.003886876573228887,0.003886876573228887,2.775707726989844e-05,2.775707726989844e-05,2.775707726989844e-05,2.775707726989844e-05,0.9868306478367255,0.9868306478367255,0.9868306478367255,0.9868306478367255,112.0,112.0,112.0,112.0,1,6
0,0.0028822444792691655,0.0028822444792691655,0.0028822444792691655,0.0028822444792691655,64.0,64.0,64.0,64.0,0.0021684136478947,0.0021684136478947,0.0021684136478947,0.0021684136478947,8.305275797629688e-06,8.305275797629688e-06,8.305275797629688e-06,8.305275797629688e-06,0.41873319472644965,0.41873319472644965,0.41873319472644965,0.41873319472644965,104.0,104.0,104.0,104.0,1,3
0,0.004777546434837916,0.004777546434837916,0.004777546434837916,0.004777546434837916,75.0,75.0,75.0,75.0,0.0037921988964114382,0.0037921988964114382,0.0037921988964114382,0.0037921988964114382,2.2824705353796903e-05,2.2824705353796903e-05,2.2824705353796903e-05,2.2824705353796903e-05,0.7757785614698824,0.7757785614698824,0.7757785614698824,0.7757785614698824,106.0,106.0,106.0,106.0,1,4
0,0.024450551465285283,0.024450551465285283,0.024450551465285283,0.024450551465285283,71.0,71.0,71.0,71.0,0.01805139008495543,0.01805139008495543,0.01805139008495543,0.01805139008495543,0.0005977392995251701,0.0005977392995251701,0.0005977392995251701,0.0005977392995251701,4.092569297465496,4.092569297465496,4.092569297465496,4.092569297465496,104.0,104.0,104.0,104.0,1,5
0,0.003429778904261074,0.003429778904261074,0.003429778904261074,0.003429778904261074,65.0,65.0,65.0,65.0,0.002691962948708595,0.002691962948708595,0.002691962948708595,0.002691962948708595,1.1763373943982584e-05,1.1763373943982584e-05,1.1763373943982584e-05,1.1763373943982584e-05,0.4970079649254326,0.4970079649254326,0.4970079649254326,0.4970079649254326,94.0,94.0,94.0,94.0,1,3
0,0.009191027711070079,0.009191027711070079,0.009191027711070079,0.009191027711070079,70.0,70.0,70.0,70.0,0.007172758810741813,0.007172758810741813,0.007172758810741813,0.007172758810741813,8.445456645240529e-05,8.445456645240529e-05,8.445456645240529e-05,8.445456645240529e-05,1.5150781068483807,1.5150781068483807,1.5150781068483807,1.5150781068483807,94.0,94.0,94.0,94.0,1,5
0,0.005074501373300147,0.005074501373300147,0.005074501373300147,0.005074501373300147,75.0,75.0,75.0,75.0,0.003947751134518143,0.003947751134518143,0.003947751134518143,0.003947751134518143,2.574817850987658e-05,2.574817850987658e-05,2.574817850987658e-05,2.574817850987658e-05,0.9249554403807432,0.9249554403807432,0.9249554403807432,0.9249554403807432,104.0,104.0,104.0,104.0,1,4
0,0.004820958855455319,0.004820958855455319,0.004820958855455319,0.004820958855455319,100.0,100.0,100.0,100.0,0.003844182259802642,0.003844182259802642,0.003844182259802642,0.003844182259802642,2.3233020545065584e-05,2.3233020545065584e-05,2.3233020545065584e-05,2.3233020545065584e-05,1.047591824096283,1.047591824096283,1.047591824096283,1.047591824096283,123.0,123.0,123.0,123.0,1,1
0,0.0026077778641194144,0.0026077778641194144,0.0026077778641194144,0.0026077778641194144,71.0,71.0,71.0,71.0,0.002055175917132485,0.002055175917132485,0.002055175917132485,0.002055175917132485,6.800501591323613e-06,6.800501591323613e-06,6.800501591323613e-06,6.800501591323613e-06,0.4222075335374178,0.4222075335374178,0.4222075335374178,0.4222075335374178,103.0,103.0,103.0,103.0,1,2
0,0.005561546174098423,0.005561546174098423,0.005561546174098423,0.005561546174098423,81.0,81.0,81.0,81.0,0.004196821432653332,0.004196821432653332,0.004196821432653332,0.004196821432653332,3.0922457084341994e-05,3.0922457084341994e-05,3.0922457084341994e-05,3.0922457084341994e-05,0.9657595740984034,0.9657595740984034,0.9657595740984034,0.9657595740984034,117.0,117.0,117.0,117.0,1,6
0,0.004707127683462781,0.004707127683462781,0.004707127683462781,0.004707127683462781,64.0,64.0,64.0,64.0,0.0037843228726594192,0.0037843228726594192,0.0037843228726594192,0.0037843228726594192,2.2155221543314585e-05,2.2155221543314585e-05,2.2155221543314585e-05,2.2155221543314585e-05,0.7791109196233454,0.7791109196233454,0.7791109196233454,0.7791109196233454,94.0,94.0,94.0,94.0,1,6
0,0.00831271498150007,0.00831271498150007,0.00831271498150007,0.00831271498150007,68.0,68.0,68.0,68.0,0.00675574114395912,0.00675574114395912,0.00675574114395912,0.00675574114395912,6.907458555478139e-05,6.907458555478139e-05,6.907458555478139e-05,6.907458555478139e-05,1.3948536939993517,1.3948536939993517,1.3948536939993517,1.3948536939993517,80.0,80.0,80.0,80.0,1,5
0,0.004071904663306268,0.004071904663306268,0.004071904663306268,0.004071904663306268,99.0,99.0,99.0,99.0,0.003290939351708611,0.003290939351708611,0.003290939351708611,0.003290939351708611,1.658031855171126e-05,1.658031855171126e-05,1.658031855171126e-05,1.658031855171126e-05,0.9244142980823272,0.9244142980823272,0.9244142980823272,0.9244142980823272,127.0,127.0,127.0,127.0,1,1
0,0.0035850077901602487,0.0035850077901602487,0.0035850077901602487,0.0035850077901602487,81.0,81.0,81.0,81.0,0.0028665661033472627,0.0028665661033472627,0.0028665661033472627,0.0028665661033472627,1.2851313875759034e-05,1.2851313875759034e-05,1.2851313875759034e-05,1.2851313875759034e-05,0.6364069658092399,0.6364069658092399,0.6364069658092399,0.6364069658092399,103.0,103.0,103.0,103.0,1,4
0,0.0032043494979253823,0.0032043494979253823,0.0032043494979253823,0.0032043494979253823,62.0,62.0,62.0,62.0,0.0026361426624561647,0.0026361426624561647,0.0026361426624561647,0.0026361426624561647,1.0266913932431726e-05,1.0266913932431726e-05,1.0266913932431726e-05,1.0266913932431726e-05,0.5046518285883583,0.5046518285883583,0.5046518285883583,0.5046518285883583,99.0,99.0,99.0,99.0,1,2
0,0.001763983520423667,0.001763983520423667,0.001763983520423667,0.001763983520423667,89.0,89.0,89.0,89.0,0.0013952617265443996,0.0013952617265443996,0.0013952617265443996,0.0013952617265443996,3.1060067352544995e-06,3.1060067352544995e-06,3.1060067352544995e-06,3.1060067352544995e-06,0.3363019944224933,0.3363019944224933,0.3363019944224933,0.3363019944224933,126.0,126.0,126.0,126.0,1,3
0,0.004459503523644713,0.004459503523644713,0.004459503523644713,0.004459503523644713,90.0,90.0,90.0,90.0,0.0036267699237428645,0.0036267699237428645,0.0036267699237428645,0.0036267699237428645,1.9887087944685786e-05,1.9887087944685786e-05,1.9887087944685786e-05,1.9887087944685786e-05,0.9390561459632352,0.9390561459632352,0.9390561459632352,0.9390561459632352,113.0,113.0,113.0,113.0,1,1
0,0.0033208899665847632,0.0033208899665847632,0.0033208899665847632,0.0033208899665847632,78.0,78.0,78.0,78.0,0.00254646083948266,0.00254646083948266,0.00254646083948266,0.00254646083948266,1.1028243109216967e-05,1.1028243109216967e-05,1.1028243109216967e-05,1.1028243109216967e-05,0.6071509568434896,0.6071509568434896,0.6071509568434896,0.6071509568434896,115.0,115.0,115.0,115.0,1,4
0,0.005969956761965961,0.005969956761965961,0.005969956761965961,0.005969956761965961,78.0,78.0,78.0,78.0,0.004614108479216866,0.004614108479216866,0.004614108479216866,0.004614108479216866,3.5636350520084945e-05,3.5636350520084945e-05,3.5636350520084945e-05,3.5636350520084945e-05,1.0076848603451507,1.0076848603451507,1.0076848603451507,1.0076848603451507,97.0,97.0,97.0,97.0,1,5
0,0.0016595731313372058,0.0016595731313372058,0.0016595731313372058,0.0016595731313372058,78.0,78.0,78.0,78.0,0.0012917290835190195,0.0012917290835190195,0.0012917290835190195,0.0012917290835190195,2.75416852630649e-06,2.75416852630649e-06,2.75416852630649e-06,2.75416852630649e-06,0.2984012976579218,0.2984012976579218,0.2984012976579218,0.2984012976579218,112.0,112.0,112.0,112.0,1,3
0,0.0027205444617520134,0.0027205444617520134,0.0027205444617520134,0.0027205444617520134,83.0,83.0,83.0,83.0,0.0021741507890138336,0.0021741507890138336,0.0021741507890138336,0.0021741507890138336,7.3997396957396116e-06,7.3997396957396116e-06,7.3997396957396116e-06,7.3997396957396116e-06,0.5207338109967345,0.5207338109967345,0.5207338109967345,0.5207338109967345,111.0,111.0,111.0,111.0,1,6
0,0.0032744805769795264,0.0032744805769795264,0.0032744805769795264,0.0032744805769795264,68.0,68.0,68.0,68.0,0.0024558604373559954,0.0024558604373559954,0.0024558604373559954,0.0024558604373559954,1.0721855189463613e-05,1.0721855189463613e-05,1.0721855189463613e-05,1.0721855189463613e-05,0.5136976554884779,0.5136976554884779,0.5136976554884779,0.5136976554884779,103.0,103.0,103.0,103.0,1,2
0,0.007501142683400916,0.007501142683400916,0.007501142683400916,0.007501142683400916,66.0,66.0,66.0,66.0,0.005894209871157392,0.005894209871157392,0.005894209871157392,0.005894209871157392,5.6266962120023415e-05,5.6266962120023415e-05,5.6266962120023415e-05,5.6266962120023415e-05,1.2696809034762921,1.2696809034762921,1.2696809034762921,1.2696809034762921,84.0,84.0,84.0,84.0,1,5
0,0.005597819152206028,0.005597819152206028,0.005597819152206028,0.005597819152206028,97.0,97.0,97.0,97.0,0.004250531994765335,0.004250531994765335,0.004250531994765335,0.004250531994765335,3.1332747595761485e-05,3.1332747595761485e-05,3.1332747595761485e-05,3.1332747595761485e-05,1.2446296158485048,1.2446296158485048,1.2446296158485048,1.2446296158485048,136.0,136.0,136.0,136.0,1,1
0,0.004616245601042987,0.004616245601042987,0.004616245601042987,0.004616245601042987,77.0,77.0,77.0,77.0,0.0036266602233240896,0.0036266602233240896,0.0036266602233240896,0.0036266602233240896,2.130647319193756e-05,2.130647319193756e-05,2.130647319193756e-05,2.130647319193756e-05,0.7795716299992044,0.7795716299992044,0.7795716299992044,0.7795716299992044,108.0,108.0,108.0,108.0,1,4
0,0.004059377747318378,0.004059377747318378,0.004059377747318378,0.004059377747318378,68.0,68.0,68.0,68.0,0.0031739631499090016,0.0031739631499090016,0.0031739631499090016,0.0031739631499090016,1.6456426318593078e-05,1.6456426318593078e-05,1.6456426318593078e-05,1.6456426318593078e-05,0.7046463350724756,0.7046463350724756,0.7046463350724756,0.7046463350724756,99.0,99.0,99.0,99.0,1,6
0,0.0021777863153678895,0.0021777863153678895,0.0021777863153678895,0.0021777863153678895,70.0,70.0,70.0,70.0,0.0016857707023931238,0.0016857707023931238,0.0016857707023931238,0.0016857707023931238,4.742231057602906e-06,4.742231057602906e-06,4.742231057602906e-06,4.742231057602906e-06,0.3531299792987598,0.3531299792987598,0.3531299792987598,0.3531299792987598,112.0,112.0,112.0,112.0,1,3
0,0.00901784045629687,0.00901784045629687,0.00901784045629687,0.00901784045629687,79.0,79.0,79.0,79.0,0.005457420549543323,0.005457420549543323,0.005457420549543323,0.005457420549543323,8.131832041484641e-05,8.131832041484641e-05,8.131832041484641e-05,8.131832041484641e-05,1.2748858342267246,1.2748858342267246,1.2748858342267246,1.2748858342267246,100.0,100.0,100.0,100.0,1,2
0,0.0019449544088822781,0.0019449544088822781,0.0019449544088822781,0.0019449544088822781,70.0,70.0,70.0,70.0,0.0015228609675381295,0.0015228609675381295,0.0015228609675381295,0.0015228609675381295,3.78264312879245e-06,3.78264312879245e-06,3.78264312879245e-06,3.78264312879245e-06,0.347770813352555,0.347770813352555,0.347770813352555,0.347770813352555,120.0,120.0,120.0,120.0,1,3
0,0.0035816122758901775,0.0035816122758901775,0.0035816122758901775,0.0035816122758901775,89.0,89.0,89.0,89.0,0.00279370891120363,0.00279370891120363,0.00279370891120363,0.00279370891120363,1.2826195108656643e-05,1.2826195108656643e-05,1.2826195108656643e-05,1.2826195108656643e-05,0.7193769762550324,0.7193769762550324,0.7193769762550324,0.7193769762550324,115.0,115.0,115.0,115.0,1,4
0,0.0030712119493199845,0.0030712119493199845,0.0030712119493199845,0.0030712119493199845,74.0,74.0,74.0,74.0,0.002443923314837879,0.002443923314837879,0.002443923314837879,0.002443923314837879,9.426594341518943e-06,9.426594341518943e-06,9.426594341518943e-06,9.426594341518943e-06,0.538240531353971,0.538240531353971,0.538240531353971,0.538240531353971,111.0,111.0,111.0,111.0,1,6
0,0.002475879628179085,0.002475879628179085,0.002475879628179085,0.002475879628179085,67.0,67.0,67.0,67.0,0.0018048140285148078,0.0018048140285148078,0.0018048140285148078,0.0018048140285148078,6.129287612700049e-06,6.129287612700049e-06,6.129287612700049e-06,6.129287612700049e-06,0.3982517916776178,0.3982517916776178,0.3982517916776178,0.3982517916776178,110.0,110.0,110.0,110.0,1,2
0,0.006466030686897168,0.006466030686897168,0.006466030686897168,0.006466030686897168,100.0,100.0,100.0,100.0,0.004534477329890668,0.004534477329890668,0.004534477329890668,0.004534477329890668,4.1802995272425446e-05,4.1802995272425446e-05,4.1802995272425446e-05,4.1802995272425446e-05,1.3476209293113024,1.3476209293113024,1.3476209293113024,1.3476209293113024,130.0,130.0,130.0,130.0,1,1
0,0.0059852413450328145,0.0059852413450328145,0.0059852413450328145,0.0059852413450328145,79.0,79.0,79.0,79.0,0.004803582161652373,0.004803582161652373,0.004803582161652373,0.004803582161652373,3.5822448193218436e-05,3.5822448193218436e-05,3.5822448193218436e-05,3.5822448193218436e-05,1.0678194552533813,1.0678194552533813,1.0678194552533813,1.0678194552533813,101.0,101.0,101.0,101.0,1,5
0,0.005619981587025783,0.005619981587025783,0.005619981587025783,0.005619981587025783,98.0,98.0,98.0,98.0,0.004404951817183443,0.004404951817183443,0.004404951817183443,0.004404951817183443,3.158015554703613e-05,3.158015554703613e-05,3.158015554703613e-05,3.158015554703613e-05,1.2098133375225892,1.2098133375225892,1.2098133375225892,1.2098133375225892,123.0,123.0,123.0,123.0,1,1
0,0.008084832361943817,0.008084832361943817,0.008084832361943817,0.008084832361943817,66.0,66.0,66.0,66.0,0.006226347223393786,0.006226347223393786,0.006226347223393786,0.006226347223393786,6.536450703958719e-05,6.536450703958719e-05,6.536450703958719e-05,6.536450703958719e-05,1.3007402493992148,1.3007402493992148,1.3007402493992148,1.3007402493992148,85.0,85.0,85.0,85.0,1,5
0,0.002392471048928721,0.002392471048928721,0.002392471048928721,0.002392471048928721,72.0,72.0,72.0,72.0,0.0019087169361980373,0.0019087169361980373,0.0019087169361980373,0.0019087169361980373,5.723382405734979e-06,5.723382405734979e-06,5.723382405734979e-06,5.723382405734979e-06,0.4000860740356619,0.4000860740356619,0.4000860740356619,0.4000860740356619,102.0,102.0,102.0,102.0,1,3
0,0.002811036908953176,0.002811036908953176,0.002811036908953176,0.002811036908953176,69.0,69.0,69.0,69.0,0.0022811168818820463,0.0022811168818820463,0.0022811168818820463,0.0022811168818820463,7.891372500048413e-06,7.891372500048413e-06,7.891372500048413e-06,7.891372500048413e-06,0.4833026415977396,0.4833026415977396,0.4833026415977396,0.4833026415977396,98.0,98.0,98.0,98.0,1,2
0,0.004065840139644025,0.004065840139644025,0.004065840139644025,0.004065840139644025,75.0,75.0,75.0,75.0,0.0031824033109938525,0.0031824033109938525,0.0031824033109938525,0.0031824033109938525,1.6526628394941246e-05,1.6526628394941246e-05,1.6526628394941246e-05,1.6526628394941246e-05,0.7261109102085397,0.7261109102085397,0.7261109102085397,0.7261109102085397,103.0,103.0,103.0,103.0,1,4
0,0.004121897629905279,0.004121897629905279,0.004121897629905279,0.004121897629905279,87.0,87.0,87.0,87.0,0.0032358157813509275,0.0032358157813509275,0.0032358157813509275,0.0032358157813509275,1.6985242373307538e-05,1.6985242373307538e-05,1.6985242373307538e-05,1.6985242373307538e-05,0.7537361160740996,0.7537361160740996,0.7537361160740996,0.7537361160740996,116.0,116.0,116.0,116.0,1,6
0,0.007772337339769848,0.007772337339769848,0.007772337339769848,0.007772337339769848,88.0,88.0,88.0,88.0,0.006088772036342937,0.006088772036342937,0.006088772036342937,0.006088772036342937,6.040511828581858e-05,6.040511828581858e-05,6.040511828581858e-05,6.040511828581858e-05,1.5905454178372314,1.5905454178372314,1.5905454178372314,1.5905454178372314,115.0,115.0,115.0,115.0,1,1
0,0.005130532287411577,0.005130532287411577,0.005130532287411577,0.005130532287411577,68.0,68.0,68.0,68.0,0.004145588471325049,0.004145588471325049,0.004145588471325049,0.004145588471325049,2.631820697947344e-05,2.631820697947344e-05,2.631820697947344e-05,2.631820697947344e-05,0.8831215301021498,0.8831215301021498,0.8831215301021498,0.8831215301021498,102.0,102.0,102.0,102.0,1,6
0,0.010014051127455603,0.010014051127455603,0.010014051127455603,0.010014051127455603,66.0,66.0,66.0,66.0,0.007868091038440763,0.007868091038440763,0.007868091038440763,0.007868091038440763,0.0001002754296884748,0.0001002754296884748,0.0001002754296884748,0.0001002754296884748,1.5588571429789482,1.5588571429789482,1.5588571429789482,1.5588571429789482,88.0,88.0,88.0,88.0,1,5
0,0.00420913224855291,0.00420913224855291,0.00420913224855291,0.00420913224855291,65.0,65.0,65.0,65.0,0.003197888684729572,0.003197888684729572,0.003197888684729572,0.003197888684729572,1.7715242387503222e-05,1.7715242387503222e-05,1.7715242387503222e-05,1.7715242387503222e-05,0.6518045115364631,0.6518045115364631,0.6518045115364631,0.6518045115364631,106.0,106.0,106.0,106.0,1,2
0,0.0023622252622058086,0.0023622252622058086,0.0023622252622058086,0.0023622252622058086,68.0,68.0,68.0,68.0,0.001937327129912154,0.001937327129912154,0.001937327129912154,0.001937327129912154,5.579431128490216e-06,5.579431128490216e-06,5.579431128490216e-06,5.579431128490216e-06,0.3957251157490661,0.3957251157490661,0.3957251157490661,0.3957251157490661,105.0,105.0,105.0,105.0,1,3
0,0.0054591589151869405,0.0054591589151869405,0.0054591589151869405,0.0054591589151869405,71.0,71.0,71.0,71.0,0.00418585819569332,0.00418585819569332,0.00418585819569332,0.00418585819569332,2.977740901670512e-05,2.977740901670512e-05,2.977740901670512e-05,2.977740901670512e-05,0.8965439627121965,0.8965439627121965,0.8965439627121965,0.8965439627121965,99.0,99.0,99.0,99.0,1,4
0,0.0035342624307963025,0.0035342624307963025,0.0035342624307963025,0.0035342624307963025,76.0,76.0,76.0,76.0,0.0027185439893606333,0.0027185439893606333,0.0027185439893606333,0.0027185439893606333,1.248556593956326e-05,1.248556593956326e-05,1.248556593956326e-05,1.248556593956326e-05,0.6072601249993265,0.6072601249993265,0.6072601249993265,0.6072601249993265,96.0,96.0,96.0,96.0,1,4
0,0.003416224898220801,0.003416224898220801,0.003416224898220801,0.003416224898220801,75.0,75.0,75.0,75.0,0.0027183313462673785,0.0027183313462673785,0.0027183313462673785,0.0027183313462673785,1.166709784441777e-05,1.166709784441777e-05,1.166709784441777e-05,1.166709784441777e-05,0.6192028586073757,0.6192028586073757,0.6192028586073757,0.6192028586073757,103.0,103.0,103.0,103.0,1,6
0,0.0018022124920369998,0.0018022124920369998,0.0018022124920369998,0.0018022124920369998,85.0,85.0,85.0,85.0,0.0014371842536681193,0.0014371842536681193,0.0014371842536681193,0.0014371842536681193,3.241710891074583e-06,3.241710891074583e-06,3.241710891074583e-06,3.241710891074583e-06,0.3490390378941006,0.3490390378941006,0.3490390378941006,0.3490390378941006,121.0,121.0,121.0,121.0,1,3
0,0.007202517015167195,0.007202517015167195,0.007202517015167195,0.007202517015167195,75.0,75.0,75.0,75.0,0.004320003157382465,0.004320003157382465,0.004320003157382465,0.004320003157382465,5.187620164391885e-05,5.187620164391885e-05,5.187620164391885e-05,5.187620164391885e-05,0.9388640966367733,0.9388640966367733,0.9388640966367733,0.9388640966367733,101.0,101.0,101.0,101.0,1,2
0,0.0073907954388505925,0.0073907954388505925,0.0073907954388505925,0.0073907954388505925,71.0,71.0,71.0,71.0,0.0059679489190380105,0.0059679489190380105,0.0059679489190380105,0.0059679489190380105,5.4591430107478245e-05,5.4591430107478245e-05,5.4591430107478245e-05,5.4591430107478245e-05,1.2482497533934636,1.2482497533934636,1.2482497533934636,1.2482497533934636,94.0,94.0,94.0,94.0,1,5
0,0.008133534808607784,0.008133534808607784,0.008133534808607784,0.008133534808607784,114.0,114.0,114.0,114.0,0.006035913721073303,0.006035913721073303,0.006035913721073303,0.006035913721073303,6.615051539372658e-05,6.615051539372658e-05,6.615051539372658e-05,6.615051539372658e-05,1.8720130799471928,1.8720130799471928,1.8720130799471928,1.8720130799471928,127.0,127.0,127.0,127.0,1,1
0,0.006964963810703134,0.006964963810703134,0.006964963810703134,0.006964963810703134,68.0,68.0,68.0,68.0,0.005346497788850713,0.005346497788850713,0.005346497788850713,0.005346497788850713,4.851018559248108e-05,4.851018559248108e-05,4.851018559248108e-05,4.851018559248108e-05,1.1242344817067988,1.1242344817067988,1.1242344817067988,1.1242344817067988,100.0,100.0,100.0,100.0,1,5
0,0.007479297028809179,0.007479297028809179,0.007479297028809179,0.007479297028809179,67.0,67.0,67.0,67.0,0.005770419058793146,0.005770419058793146,0.005770419058793146,0.005770419058793146,5.5939850240408014e-05,5.5939850240408014e-05,5.5939850240408014e-05,5.5939850240408014e-05,1.2024970938851154,1.2024970938851154,1.2024970938851154,1.2024970938851154,88.0,88.0,88.0,88.0,1,4
0,0.004999969788274146,0.004999969788274146,0.004999969788274146,0.004999969788274146,93.0,93.0,93.0,93.0,0.0038932668205951737,0.0038932668205951737,0.0038932668205951737,0.0038932668205951737,2.4998036949316653e-05,2.4998036949316653e-05,2.4998036949316653e-05,2.4998036949316653e-05,1.0966024376246089,1.0966024376246089,1.0966024376246089,1.0966024376246089,120.0,120.0,120.0,120.0,1,1
0,0.0018190261507287774,0.0018190261507287774,0.0018190261507287774,0.0018190261507287774,82.0,82.0,82.0,82.0,0.001409713683255906,0.001409713683255906,0.001409713683255906,0.001409713683255906,3.3067003197628167e-06,3.3067003197628167e-06,3.3067003197628167e-06,3.3067003197628167e-06,0.3409003345224507,0.3409003345224507,0.3409003345224507,0.3409003345224507,115.0,115.0,115.0,115.0,1,3
0,0.003511646328485162,0.003511646328485162,0.003511646328485162,0.003511646328485162,74.0,74.0,74.0,74.0,0.0026360315997759343,0.0026360315997759343,0.0026360315997759343,0.0026360315997759343,1.2328638034416243e-05,1.2328638034416243e-05,1.2328638034416243e-05,1.2328638034416243e-05,0.5730228200311689,0.5730228200311689,0.5730228200311689,0.5730228200311689,98.0,98.0,98.0,98.0,1,2
0,0.003549307819114357,0.003549307819114357,0.003549307819114357,0.003549307819114357,68.0,68.0,68.0,68.0,0.0028490684815851266,0.0028490684815851266,0.0028490684815851266,0.0028490684815851266,1.2589923345090351e-05,1.2589923345090351e-05,1.2589923345090351e-05,1.2589923345090351e-05,0.6219969750221274,0.6219969750221274,0.6219969750221274,0.6219969750221274,95.0,95.0,95.0,95.0,1,6
0,0.0042261258176772626,0.0042261258176772626,0.0042261258176772626,0.0042261258176772626,68.0,68.0,68.0,68.0,0.003246462120661823,0.003246462120661823,0.003246462120661823,0.003246462120661823,1.7857987146532728e-05,1.7857987146532728e-05,1.7857987146532728e-05,1.7857987146532728e-05,0.7238385960823075,0.7238385960823075,0.7238385960823075,0.7238385960823075,95.0,95.0,95.0,95.0,1,2
0,0.002219620161782789,0.002219620161782789,0.002219620161782789,0.002219620161782789,77.0,77.0,77.0,77.0,0.001662509582594379,0.001662509582594379,0.001662509582594379,0.001662509582594379,4.922534725264313e-06,4.922534725264313e-06,4.922534725264313e-06,4.922534725264313e-06,0.3693098785465173,0.3693098785465173,0.3693098785465173,0.3693098785465173,103.0,103.0,103.0,103.0,1,3
0,0.009661365339635514,0.009661365339635514,0.009661365339635514,0.009661365339635514,67.0,67.0,67.0,67.0,0.007244081293948506,0.007244081293948506,0.007244081293948506,0.007244081293948506,9.334173286412884e-05,9.334173286412884e-05,9.334173286412884e-05,9.334173286412884e-05,1.536014908668452,1.536014908668452,1.536014908668452,1.536014908668452,98.0,98.0,98.0,98.0,1,5
0,0.00494558482148477,0.00494558482148477,0.00494558482148477,0.00494558482148477,79.0,79.0,79.0,79.0,0.0038438935052037206,0.0038438935052037206,0.0038438935052037206,0.0038438935052037206,2.443632238068775e-05,2.443632238068775e-05,2.443632238068775e-05,2.443632238068775e-05,0.8981689929022514,0.8981689929022514,0.8981689929022514,0.8981689929022514,95.0,95.0,95.0,95.0,1,6
0,0.005282119148751889,0.005282119148751889,0.005282119148751889,0.005282119148751889,77.0,77.0,77.0,77.0,0.0038429843028731127,0.0038429843028731127,0.0038429843028731127,0.0038429843028731127,2.786834088474601e-05,2.786834088474601e-05,2.786834088474601e-05,2.786834088474601e-05,0.9120884276673543,0.9120884276673543,0.9120884276673543,0.9120884276673543,119.0,119.0,119.0,119.0,1,4
0,0.00602085427765874,0.00602085427765874,0.00602085427765874,0.00602085427765874,81.0,81.0,81.0,81.0,0.004518489091331077,0.004518489091331077,0.004518489091331077,0.004518489091331077,3.62506861861889e-05,3.62506861861889e-05,3.62506861861889e-05,3.62506861861889e-05,1.1542944917758193,1.1542944917758193,1.1542944917758193,1.1542944917758193,108.0,108.0,108.0,108.0,1,1
0,0.0022403874875535695,0.0022403874875535695,0.0022403874875535695,0.0022403874875535695,75.0,75.0,75.0,75.0,0.0017156930207292411,0.0017156930207292411,0.0017156930207292411,0.0017156930207292411,5.018249957121204e-06,5.018249957121204e-06,5.018249957121204e-06,5.018249957121204e-06,0.3772566627359134,0.3772566627359134,0.3772566627359134,0.3772566627359134,109.0,109.0,109.0,109.0,1,1
0,0.007869726026111927,0.007869726026111927,0.007869726026111927,0.007869726026111927,66.0,66.0,66.0,66.0,0.004696985906396488,0.004696985906396488,0.004696985906396488,0.004696985906396488,6.192279222913693e-05,6.192279222913693e-05,6.192279222913693e-05,6.192279222913693e-05,0.9509196651821047,0.9509196651821047,0.9509196651821047,0.9509196651821047,89.0,89.0,89.0,89.0,1,2
0,0.004022764660293917,0.004022764660293917,0.004022764660293917,0.004022764660293917,76.0,76.0,76.0,76.0,0.0032030124067899102,0.0032030124067899102,0.0032030124067899102,0.0032030124067899102,1.6170549630477947e-05,1.6170549630477947e-05,1.6170549630477947e-05,1.6170549630477947e-05,0.710608439213327,0.710608439213327,0.710608439213327,0.710608439213327,98.0,98.0,98.0,98.0,1,6
0,0.0021604595505502946,0.0021604595505502946,0.0021604595505502946,0.0021604595505502946,74.0,74.0,74.0,74.0,0.0016564630907652804,0.0016564630907652804,0.0016564630907652804,0.0016564630907652804,4.667499511790465e-06,4.667499511790465e-06,4.667499511790465e-06,4.667499511790465e-06,0.36331022281805236,0.36331022281805236,0.36331022281805236,0.36331022281805236,103.0,103.0,103.0,103.0,1,3
0,0.0049911299730200556,0.0049911299730200556,0.0049911299730200556,0.0049911299730200556,70.0,70.0,70.0,70.0,0.003918156231987236,0.003918156231987236,0.003918156231987236,0.003918156231987236,2.491092773029455e-05,2.491092773029455e-05,2.491092773029455e-05,2.491092773029455e-05,0.8457790110799739,0.8457790110799739,0.8457790110799739,0.8457790110799739,101.0,101.0,101.0,101.0,1,4
0,0.006990414846244587,0.006990414846244587,0.006990414846244587,0.006990414846244587,73.0,73.0,73.0,73.0,0.005666757202861808,0.005666757202861808,0.005666757202861808,0.005666757202861808,4.885994986520945e-05,4.885994986520945e-05,4.885994986520945e-05,4.885994986520945e-05,1.2379435838137076,1.2379435838137076,1.2379435838137076,1.2379435838137076,108.0,108.0,108.0,108.0,1,5
0,0.005228081189924683,0.005228081189924683,0.005228081189924683,0.005228081189924683,92.0,92.0,92.0,92.0,0.004039536089318474,0.004039536089318474,0.004039536089318474,0.004039536089318474,2.7331333084697857e-05,2.7331333084697857e-05,2.7331333084697857e-05,2.7331333084697857e-05,1.0789826163551708,1.0789826163551708,1.0789826163551708,1.0789826163551708,123.0,123.0,123.0,123.0,1,1
0,0.003672344396795602,0.003672344396795602,0.003672344396795602,0.003672344396795602,76.0,76.0,76.0,76.0,0.0029531537827725807,0.0029531537827725807,0.0029531537827725807,0.0029531537827725807,1.3481372014168746e-05,1.3481372014168746e-05,1.3481372014168746e-05,1.3481372014168746e-05,0.6557797595140364,0.6557797595140364,0.6557797595140364,0.6557797595140364,103.0,103.0,103.0,103.0,1,6
0,0.007111241299300691,0.007111241299300691,0.007111241299300691,0.007111241299300691,71.0,71.0,71.0,71.0,0.005553394055502674,0.005553394055502674,0.005553394055502674,0.005553394055502674,5.056935608833554e-05,5.056935608833554e-05,5.056935608833554e-05,5.056935608833554e-05,1.2014784477847713,1.2014784477847713,1.2014784477847713,1.2014784477847713,92.0,92.0,92.0,92.0,1,5
0,0.00232743545811498,0.00232743545811498,0.00232743545811498,0.00232743545811498,72.0,72.0,72.0,72.0,0.0018044683185241617,0.0018044683185241617,0.0018044683185241617,0.0018044683185241617,5.416394869986081e-06,5.416394869986081e-06,5.416394869986081e-06,5.416394869986081e-06,0.374769219646808,0.374769219646808,0.374769219646808,0.374769219646808,110.0,110.0,110.0,110.0,1,3
0,0.0028165349390523653,0.0028165349390523653,0.0028165349390523653,0.0028165349390523653,78.0,78.0,78.0,78.0,0.0021985196186877615,0.0021985196186877615,0.0021985196186877615,0.0021985196186877615,7.926110151922988e-06,7.926110151922988e-06,7.926110151922988e-06,7.926110151922988e-06,0.49080893346549787,0.49080893346549787,0.49080893346549787,0.49080893346549787,110.0,110.0,110.0,110.0,1,2
0,0.007386108143290565,0.007386108143290565,0.007386108143290565,0.007386108143290565,75.0,75.0,75.0,75.0,0.005688499887698781,0.005688499887698781,0.005688499887698781,0.005688499887698781,5.453549622667251e-05,5.453549622667251e-05,5.453549622667251e-05,5.453549622667251e-05,1.2630206778008972,1.2630206778008972,1.2630206778008972,1.2630206778008972,100.0,100.0,100.0,100.0,1,4
0,0.006043262559084277,0.006043262559084277,0.006043262559084277,0.006043262559084277,73.0,73.0,73.0,73.0,0.0045748634257180435,0.0045748634257180435,0.0045748634257180435,0.0045748634257180435,3.649886697907777e-05,3.649886697907777e-05,3.649886697907777e-05,3.649886697907777e-05,1.0534947963319805,1.0534947963319805,1.0534947963319805,1.0534947963319805,102.0,102.0,102.0,102.0,1,4
0,0.004348309308901077,0.004348309308901077,0.004348309308901077,0.004348309308901077,76.0,76.0,76.0,76.0,0.003309127128646685,0.003309127128646685,0.003309127128646685,0.003309127128646685,1.8907788769266442e-05,1.8907788769266442e-05,1.8907788769266442e-05,1.8907788769266442e-05,0.7336539224799574,0.7336539224799574,0.7336539224799574,0.7336539224799574,111.0,111.0,111.0,111.0,1,6
