,rms0,rms1,rms2,rms3,zc0,zc1,zc2,zc3,mav0,mav1,mav2,mav3,var0,var1,var2,var3,wl0,wl1,wl2,wl3,ssc0,ssc1,ssc2,ssc3,contraction,output
0,0.007871857431791425,0.007871857431791425,0.007871857431791425,0.007871857431791425,57.0,57.0,57.0,57.0,0.006396685276183546,0.006396685276183546,0.006396685276183546,0.006396685276183546,6.19634781396962e-05,6.19634781396962e-05,6.19634781396962e-05,6.19634781396962e-05,1.141603372398269,1.141603372398269,1.141603372398269,1.141603372398269,106.0,106.0,106.0,106.0,1,6
0,0.02327097941396742,0.02327097941396742,0.02327097941396742,0.02327097941396742,72.0,72.0,72.0,72.0,0.017327165080695442,0.017327165080695442,0.017327165080695442,0.017327165080695442,0.0005415126598983233,0.0005415126598983233,0.0005415126598983233,0.0005415126598983233,3.916559951518969,3.916559951518969,3.916559951518969,3.916559951518969,102.0,102.0,102.0,102.0,1,5
0,0.006934360474095135,0.006934360474095135,0.006934360474095135,0.006934360474095135,58.0,58.0,58.0,58.0,0.005444281114392583,0.005444281114392583,0.005444281114392583,0.005444281114392583,4.807309757515327e-05,4.807309757515327e-05,4.807309757515327e-05,4.807309757515327e-05,1.068762262258935,1.068762262258935,1.068762262258935,1.068762262258935,102.0,102.0,102.0,102.0,1,4
0,0.01263886863943267,0.01263886863943267,0.01263886863943267,0.01263886863943267,84.0,84.0,84.0,84.0,0.009730945238978977,0.009730945238978977,0.009730945238978977,0.009730945238978977,0.00015969745532298574,0.00015969745532298574,0.00015969745532298574,0.00015969745532298574,2.4629788972170505,2.4629788972170505,2.4629788972170505,2.4629788972170505,117.0,117.0,117.0,117.0,1,1
0,0.012935409218227235,0.012935409218227235,0.012935409218227235,0.012935409218227235,79.0,79.0,79.0,79.0,0.009129981771469915,0.009129981771469915,0.009129981771469915,0.009129981771469915,0.00016727326375154367,0.00016727326375154367,0.00016727326375154367,0.00016727326375154367,2.1838720667681213,2.1838720667681213,2.1838720667681213,2.1838720667681213,104.0,104.0,104.0,104.0,1,2
0,0.012297576928338097,0.012297576928338097,0.012297576928338097,0.012297576928338097,52.0,52.0,52.0,52.0,0.010082645727844905,0.010082645727844905,0.010082645727844905,0.010082645727844905,0.0001512303980030636,0.0001512303980030636,0.0001512303980030636,0.0001512303980030636,1.4949997013197933,1.4949997013197933,1.4949997013197933,1.4949997013197933,101.0,101.0,101.0,101.0,1,3
0,0.018705022586326347,0.018705022586326347,0.018705022586326347,0.018705022586326347,80.0,80.0,80.0,80.0,0.013721552904694456,0.013721552904694456,0.013721552904694456,0.013721552904694456,0.0003498776730926776,0.0003498776730926776,0.0003498776730926776,0.0003498776730926776,3.447167041407873,3.447167041407873,3.447167041407873,3.447167041407873,106.0,106.0,106.0,106.0,1,2
0,0.008703112150164866,0.008703112150164866,0.008703112150164866,0.008703112150164866,55.0,55.0,55.0,55.0,0.007062582824895694,0.007062582824895694,0.007062582824895694,0.007062582824895694,7.57433418589458e-05,7.57433418589458e-05,7.57433418589458e-05,7.57433418589458e-05,1.3361175828866867,1.3361175828866867,1.3361175828866867,1.3361175828866867,101.0,101.0,101.0,101.0,1,4
0,0.04440227496527532,0.04440227496527532,0.04440227496527532,0.04440227496527532,76.0,76.0,76.0,76.0,0.03201089487644683,0.03201089487644683,0.03201089487644683,0.03201089487644683,0.0019713210474426733,0.0019713210474426733,0.0019713210474426733,0.0019713210474426733,7.364143921411931,7.364143921411931,7.364143921411931,7.364143921411931,96.0,96.0,96.0,96.0,1,5
0,0.01928783122093874,0.01928783122093874,0.01928783122093874,0.01928783122093874,50.0,50.0,50.0,50.0,0.014898920124150084,0.014898920124150084,0.014898920124150084,0.014898920124150084,0.00037195744070310483,0.00037195744070310483,0.00037195744070310483,0.00037195744070310483,2.629851460402932,2.629851460402932,2.629851460402932,2.629851460402932,101.0,101.0,101.0,101.0,1,3
0,0.013648754034929671,0.013648754034929671,0.013648754034929671,0.013648754034929671,55.0,55.0,55.0,55.0,0.010338931962049531,0.010338931962049531,0.010338931962049531,0.010338931962049531,0.00018626007023879934,0.00018626007023879934,0.00018626007023879934,0.00018626007023879934,2.034979983025437,2.034979983025437,2.034979983025437,2.034979983025437,108.0,108.0,108.0,108.0,1,6
0,0.014722961808302869,0.014722961808302869,0.014722961808302869,0.014722961808302869,73.0,73.0,73.0,73.0,0.011585084423411534,0.011585084423411534,0.011585084423411534,0.011585084423411534,0.00021672056923147508,0.00021672056923147508,0.00021672056923147508,0.00021672056923147508,2.680029397774072,2.680029397774072,2.680029397774072,2.680029397774072,130.0,130.0,130.0,130.0,1,1
0,0.013927525123101716,0.013927525123101716,0.013927525123101716,0.013927525123101716,56.0,56.0,56.0,56.0,0.010364276383197271,0.010364276383197271,0.010364276383197271,0.010364276383197271,0.00019393748615239087,0.00019393748615239087,0.00019393748615239087,0.00019393748615239087,2.046023364295947,2.046023364295947,2.046023364295947,2.046023364295947,89.0,89.0,89.0,89.0,1,6
0,0.02189614061846905,0.02189614061846905,0.02189614061846905,0.02189614061846905,80.0,80.0,80.0,80.0,0.01658772737759942,0.01658772737759942,0.01658772737759942,0.01658772737759942,0.00047941901485068093,0.00047941901485068093,0.00047941901485068093,0.00047941901485068093,3.709860666905991,3.709860666905991,3.709860666905991,3.709860666905991,102.0,102.0,102.0,102.0,1,2
0,0.033534103069037716,0.033534103069037716,0.033534103069037716,0.033534103069037716,71.0,71.0,71.0,71.0,0.02477300409149252,0.02477300409149252,0.02477300409149252,0.02477300409149252,0.0011245358853851457,0.0011245358853851457,0.0011245358853851457,0.0011245358853851457,5.552494162844162,5.552494162844162,5.552494162844162,5.552494162844162,100.0,100.0,100.0,100.0,1,5
0,0.009324454335484818,0.009324454335484818,0.009324454335484818,0.009324454335484818,52.0,52.0,52.0,52.0,0.007416420753146849,0.007416420753146849,0.007416420753146849,0.007416420753146849,8.694407824278657e-05,8.694407824278657e-05,8.694407824278657e-05,8.694407824278657e-05,1.3796434478136517,1.3796434478136517,1.3796434478136517,1.3796434478136517,106.0,106.0,106.0,106.0,1,4
0,0.011896780100567616,0.011896780100567616,0.011896780100567616,0.011896780100567616,73.0,73.0,73.0,73.0,0.009561972416363036,0.009561972416363036,0.009561972416363036,0.009561972416363036,0.00014153326577481115,0.00014153326577481115,0.00014153326577481115,0.00014153326577481115,2.223434815462719,2.223434815462719,2.223434815462719,2.223434815462719,125.0,125.0,125.0,125.0,1,1
0,0.013790643174513983,0.013790643174513983,0.013790643174513983,0.013790643174513983,37.0,37.0,37.0,37.0,0.011007653506952231,0.011007653506952231,0.011007653506952231,0.011007653506952231,0.00018999112961325378,0.00018999112961325378,0.00018999112961325378,0.00018999112961325378,1.4246430608853469,1.4246430608853469,1.4246430608853469,1.4246430608853469,82.0,82.0,82.0,82.0,1,3
0,0.015868784145886917,0.015868784145886917,0.015868784145886917,0.015868784145886917,42.0,42.0,42.0,42.0,0.013045069188110069,0.013045069188110069,0.013045069188110069,0.013045069188110069,0.00025170855329685886,0.00025170855329685886,0.00025170855329685886,0.00025170855329685886,1.7078109637832624,1.7078109637832624,1.7078109637832624,1.7078109637832624,92.0,92.0,92.0,92.0,1,3
0,0.010568699471880993,0.010568699471880993,0.010568699471880993,0.010568699471880993,40.0,40.0,40.0,40.0,0.008670995441225453,0.008670995441225453,0.008670995441225453,0.008670995441225453,0.00011168876454793414,0.00011168876454793414,0.00011168876454793414,0.00011168876454793414,1.3218527563927909,1.3218527563927909,1.3218527563927909,1.3218527563927909,101.0,101.0,101.0,101.0,1,6
0,0.018366421990423227,0.018366421990423227,0.018366421990423227,0.018366421990423227,77.0,77.0,77.0,77.0,0.013309435703085942,0.013309435703085942,0.013309435703085942,0.013309435703085942,0.0003373237221981531,0.0003373237221981531,0.0003373237221981531,0.0003373237221981531,3.155985721206833,3.155985721206833,3.155985721206833,3.155985721206833,106.0,106.0,106.0,106.0,1,2
0,0.03751868598971599,0.03751868598971599,0.03751868598971599,0.03751868598971599,84.0,84.0,84.0,84.0,0.028352412872790476,0.028352412872790476,0.028352412872790476,0.028352412872790476,0.0014076513987558484,0.0014076513987558484,0.0014076513987558484,0.0014076513987558484,6.880385738452896,6.880385738452896,6.880385738452896,6.880385738452896,112.0,112.0,112.0,112.0,1,5
0,0.009099455453965023,0.009099455453965023,0.009099455453965023,0.009099455453965023,55.0,55.0,55.0,55.0,0.007532628554099864,0.007532628554099864,0.007532628554099864,0.007532628554099864,8.272618321470107e-05,8.272618321470107e-05,8.272618321470107e-05,8.272618321470107e-05,1.320413870118898,1.320413870118898,1.320413870118898,1.320413870118898,99.0,99.0,99.0,99.0,1,4
0,0.012334024731106156,0.012334024731106156,0.012334024731106156,0.012334024731106156,68.0,68.0,68.0,68.0,0.009552978361216005,0.009552978361216005,0.009552978361216005,0.009552978361216005,0.0001521235591959646,0.0001521235591959646,0.0001521235591959646,0.0001521235591959646,2.1386917373728913,2.1386917373728913,2.1386917373728913,2.1386917373728913,115.0,115.0,115.0,115.0,1,1
0,0.014431472532873803,0.014431472532873803,0.014431472532873803,0.014431472532873803,38.0,38.0,38.0,38.0,0.01212731254591909,0.01212731254591909,0.01212731254591909,0.01212731254591909,0.00020819287034706764,0.00020819287034706764,0.00020819287034706764,0.00020819287034706764,1.6635502318312556,1.6635502318312556,1.6635502318312556,1.6635502318312556,94.0,94.0,94.0,94.0,1,3
0,0.03481210473225621,0.03481210473225621,0.03481210473225621,0.03481210473225621,73.0,73.0,73.0,73.0,0.026630695456160654,0.026630695456160654,0.026630695456160654,0.026630695456160654,0.0012116633077106872,0.0012116633077106872,0.0012116633077106872,0.0012116633077106872,6.15725289434941,6.15725289434941,6.15725289434941,6.15725289434941,103.0,103.0,103.0,103.0,1,5
0,0.011889609466759628,0.011889609466759628,0.011889609466759628,0.011889609466759628,65.0,65.0,65.0,65.0,0.009345775846783836,0.009345775846783836,0.009345775846783836,0.009345775846783836,0.00014130314229692656,0.00014130314229692656,0.00014130314229692656,0.00014130314229692656,1.8043708877382199,1.8043708877382199,1.8043708877382199,1.8043708877382199,102.0,102.0,102.0,102.0,1,6
0,0.019100083655811555,0.019100083655811555,0.019100083655811555,0.019100083655811555,76.0,76.0,76.0,76.0,0.0144796078464758,0.0144796078464758,0.0144796078464758,0.0144796078464758,0.00036478955480214126,0.00036478955480214126,0.00036478955480214126,0.00036478955480214126,3.3999033735782023,3.3999033735782023,3.3999033735782023,3.3999033735782023,102.0,102.0,102.0,102.0,1,2
0,0.010138875161906024,0.010138875161906024,0.010138875161906024,0.010138875161906024,74.0,74.0,74.0,74.0,0.008410048281665968,0.008410048281665968,0.008410048281665968,0.008410048281665968,0.00010279655004982849,0.00010279655004982849,0.00010279655004982849,0.00010279655004982849,1.896476927348009,1.896476927348009,1.896476927348009,1.896476927348009,121.0,121.0,121.0,121.0,1,1
0,0.009707229721492426,0.009707229721492426,0.009707229721492426,0.009707229721492426,52.0,52.0,52.0,52.0,0.007659520398100919,0.007659520398100919,0.007659520398100919,0.007659520398100919,9.421285573200374e-05,9.421285573200374e-05,9.421285573200374e-05,9.421285573200374e-05,1.3696976875200235,1.3696976875200235,1.3696976875200235,1.3696976875200235,89.0,89.0,89.0,89.0,1,4
0,0.018674558531975756,0.018674558531975756,0.018674558531975756,0.018674558531975756,70.0,70.0,70.0,70.0,0.014809151285347575,0.014809151285347575,0.014809151285347575,0.014809151285347575,0.0003486698230572744,0.0003486698230572744,0.0003486698230572744,0.0003486698230572744,3.257084239763042,3.257084239763042,3.257084239763042,3.257084239763042,110.0,110.0,110.0,110.0,1,2
0,0.025799194949897828,0.025799194949897828,0.025799194949897828,0.025799194949897828,76.0,76.0,76.0,76.0,0.02012132598737394,0.02012132598737394,0.02012132598737394,0.02012132598737394,0.0006655984578328771,0.0006655984578328771,0.0006655984578328771,0.0006655984578328771,4.922546224226099,4.922546224226099,4.922546224226099,4.922546224226099,109.0,109.0,109.0,109.0,1,5
0,0.012580783175461173,0.012580783175461173,0.012580783175461173,0.012580783175461173,86.0,86.0,86.0,86.0,0.009939069610628262,0.009939069610628262,0.009939069610628262,0.009939069610628262,0.0001582731908249039,0.0001582731908249039,0.0001582731908249039,0.0001582731908249039,2.407899524798069,2.407899524798069,2.407899524798069,2.407899524798069,113.0,113.0,113.0,113.0,1,1
0,0.013405015886347205,0.013405015886347205,0.013405015886347205,0.013405015886347205,40.0,40.0,40.0,40.0,0.010812281132530138,0.010812281132530138,0.010812281132530138,0.010812281132530138,0.00017967229178690467,0.00017967229178690467,0.00017967229178690467,0.00017967229178690467,1.5445495302111798,1.5445495302111798,1.5445495302111798,1.5445495302111798,86.0,86.0,86.0,86.0,1,3
0,0.008707846313231949,0.008707846313231949,0.008707846313231949,0.008707846313231949,46.0,46.0,46.0,46.0,0.007028692865574668,0.007028692865574668,0.007028692865574668,0.007028692865574668,7.57908782744044e-05,7.57908782744044e-05,7.57908782744044e-05,7.57908782744044e-05,1.0674152296774777,1.0674152296774777,1.0674152296774777,1.0674152296774777,88.0,88.0,88.0,88.0,1,4
0,0.010122702862307422,0.010122702862307422,0.010122702862307422,0.010122702862307422,57.0,57.0,57.0,57.0,0.00791935463642479,0.00791935463642479,0.00791935463642479,0.00791935463642479,0.00010246641108479696,0.00010246641108479696,0.00010246641108479696,0.00010246641108479696,1.5413771423779985,1.5413771423779985,1.5413771423779985,1.5413771423779985,100.0,100.0,100.0,100.0,1,6
0,0.012889759829930236,0.012889759829930236,0.012889759829930236,0.012889759829930236,40.0,40.0,40.0,40.0,0.010628386310276359,0.010628386310276359,0.010628386310276359,0.010628386310276359,0.0001661405774127518,0.0001661405774127518,0.0001661405774127518,0.0001661405774127518,1.3657352869552795,1.3657352869552795,1.3657352869552795,1.3657352869552795,84.0,84.0,84.0,84.0,1,3
0,0.022952361874462368,0.022952361874462368,0.022952361874462368,0.022952361874462368,76.0,76.0,76.0,76.0,0.01834071682971873,0.01834071682971873,0.01834071682971873,0.01834071682971873,0.0005268022100376365,0.0005268022100376365,0.0005268022100376365,0.0005268022100376365,4.212817016604866,4.212817016604866,4.212817016604866,4.212817016604866,107.0,107.0,107.0,107.0,1,5
0,0.00858370706519525,0.00858370706519525,0.00858370706519525,0.00858370706519525,56.0,56.0,56.0,56.0,0.007076147318252279,0.007076147318252279,0.007076147318252279,0.007076147318252279,7.367981217173215e-05,7.367981217173215e-05,7.367981217173215e-05,7.367981217173215e-05,1.276875939685949,1.276875939685949,1.276875939685949,1.276875939685949,97.0,97.0,97.0,97.0,1,4
0,0.01863971996317552,0.01863971996317552,0.01863971996317552,0.01863971996317552,82.0,82.0,82.0,82.0,0.013818818075993113,0.013818818075993113,0.013818818075993113,0.013818818075993113,0.0003474326661409092,0.0003474326661409092,0.0003474326661409092,0.0003474326661409092,3.2920682405196677,3.2920682405196677,3.2920682405196677,3.2920682405196677,98.0,98.0,98.0,98.0,1,2
0,0.01353516140838971,0.01353516140838971,0.01353516140838971,0.01353516140838971,82.0,82.0,82.0,82.0,0.010402016437191037,0.010402016437191037,0.010402016437191037,0.010402016437191037,0.00018318573876704758,0.00018318573876704758,0.00018318573876704758,0.00018318573876704758,2.4054210901894,2.4054210901894,2.4054210901894,2.4054210901894,110.0,110.0,110.0,110.0,1,1
0,0.010108559022478774,0.010108559022478774,0.010108559022478774,0.010108559022478774,52.0,52.0,52.0,52.0,0.007473303299107781,0.007473303299107781,0.007473303299107781,0.007473303299107781,0.00010217713789886757,0.00010217713789886757,0.00010217713789886757,0.00010217713789886757,1.3959978692853867,1.3959978692853867,1.3959978692853867,1.3959978692853867,98.0,98.0,98.0,98.0,1,6
0,0.011775261670502937,0.011775261670502937,0.011775261670502937,0.011775261670502937,71.0,71.0,71.0,71.0,0.00890972392059227,0.00890972392059227,0.00890972392059227,0.00890972392059227,0.00013865676041727949,0.00013865676041727949,0.00013865676041727949,0.00013865676041727949,1.8435618559697728,1.8435618559697728,1.8435618559697728,1.8435618559697728,108.0,108.0,108.0,108.0,1,6
0,0.016841841040358446,0.016841841040358446,0.016841841040358446,0.016841841040358446,73.0,73.0,73.0,73.0,0.012603809976880861,0.012603809976880861,0.012603809976880861,0.012603809976880861,0.0002836472579227515,0.0002836472579227515,0.0002836472579227515,0.0002836472579227515,2.966346029842718,2.966346029842718,2.966346029842718,2.966346029842718,102.0,102.0,102.0,102.0,1,2
0,0.010739838085146485,0.010739838085146485,0.010739838085146485,0.010739838085146485,77.0,77.0,77.0,77.0,0.008901612440338965,0.008901612440338965,0.008901612440338965,0.008901612440338965,0.00011533213421930785,0.00011533213421930785,0.00011533213421930785,0.00011533213421930785,2.001520192696327,2.001520192696327,2.001520192696327,2.001520192696327,117.0,117.0,117.0,117.0,1,1
0,0.02663326103245902,0.02663326103245902,0.02663326103245902,0.02663326103245902,80.0,80.0,80.0,80.0,0.019557866339212814,0.019557866339212814,0.019557866339212814,0.019557866339212814,0.000709329887317742,0.000709329887317742,0.000709329887317742,0.000709329887317742,4.519971263281041,4.519971263281041,4.519971263281041,4.519971263281041,99.0,99.0,99.0,99.0,1,5
0,0.012264527904882114,0.012264527904882114,0.012264527904882114,0.012264527904882114,44.0,44.0,44.0,44.0,0.010507613132589555,0.010507613132589555,0.010507613132589555,0.010507613132589555,0.0001503741334587704,0.0001503741334587704,0.0001503741334587704,0.0001503741334587704,1.4708851498264335,1.4708851498264335,1.4708851498264335,1.4708851498264335,107.0,107.0,107.0,107.0,1,3
0,0.008617786397603066,0.008617786397603066,0.008617786397603066,0.008617786397603066,59.0,59.0,59.0,59.0,0.006736276836342317,0.006736276836342317,0.006736276836342317,0.006736276836342317,7.426545185231015e-05,7.426545185231015e-05,7.426545185231015e-05,7.426545185231015e-05,1.266881113212959,1.266881113212959,1.266881113212959,1.266881113212959,104.0,104.0,104.0,104.0,1,4
0,0.007655598808498522,0.007655598808498522,0.007655598808498522,0.007655598808498522,43.0,43.0,43.0,43.0,0.006359770338953055,0.006359770338953055,0.006359770338953055,0.006359770338953055,5.860115268195257e-05,5.860115268195257e-05,5.860115268195257e-05,5.860115268195257e-05,0.9842394364947953,0.9842394364947953,0.9842394364947953,0.9842394364947953,100.0,100.0,100.0,100.0,1,4
0,0.025331067648458203,0.025331067648458203,0.025331067648458203,0.025331067648458203,83.0,83.0,83.0,83.0,0.01927352775759235,0.01927352775759235,0.01927352775759235,0.01927352775759235,0.0006416048119673728,0.0006416048119673728,0.0006416048119673728,0.0006416048119673728,4.772558619182013,4.772558619182013,4.772558619182013,4.772558619182013,118.0,118.0,118.0,118.0,1,5
0,0.020181478870989228,0.020181478870989228,0.020181478870989228,0.020181478870989228,70.0,70.0,70.0,70.0,0.014684276501131506,0.014684276501131506,0.014684276501131506,0.014684276501131506,0.00040729141922959635,0.00040729141922959635,0.00040729141922959635,0.00040729141922959635,3.349787304160885,3.349787304160885,3.349787304160885,3.349787304160885,96.0,96.0,96.0,96.0,1,2
0,0.015031886889299384,0.015031886889299384,0.015031886889299384,0.015031886889299384,68.0,68.0,68.0,68.0,0.010716837280599776,0.010716837280599776,0.010716837280599776,0.010716837280599776,0.00022595727506439335,0.00022595727506439335,0.00022595727506439335,0.00022595727506439335,2.2305303746309333,2.2305303746309333,2.2305303746309333,2.2305303746309333,107.0,107.0,107.0,107.0,1,6
0,0.019001220468219084,0.019001220468219084,0.019001220468219084,0.019001220468219084,40.0,40.0,40.0,40.0,0.01482391346277832,0.01482391346277832,0.01482391346277832,0.01482391346277832,0.00036102873850145546,0.00036102873850145546,0.00036102873850145546,0.00036102873850145546,2.1037479528998637,2.1037479528998637,2.1037479528998637,2.1037479528998637,88.0,88.0,88.0,88.0,1,3
0,0.012882234339128183,0.012882234339128183,0.012882234339128183,0.012882234339128183,58.0,58.0,58.0,58.0,0.010501628760849608,0.010501628760849608,0.010501628760849608,0.010501628760849608,0.0001659050580605798,0.0001659050580605798,0.0001659050580605798,0.0001659050580605798,2.058710883841356,2.058710883841356,2.058710883841356,2.058710883841356,124.0,124.0,124.0,124.0,1,1
0,0.008324065801392926,0.008324065801392926,0.008324065801392926,0.008324065801392926,56.0,56.0,56.0,56.0,0.006756347406971774,0.006756347406971774,0.006756347406971774,0.006756347406971774,6.92633055392536e-05,6.92633055392536e-05,6.92633055392536e-05,6.92633055392536e-05,1.1580215870514827,1.1580215870514827,1.1580215870514827,1.1580215870514827,115.0,115.0,115.0,115.0,1,4
0,0.026287609731561128,0.026287609731561128,0.026287609731561128,0.026287609731561128,87.0,87.0,87.0,87.0,0.019218426563380832,0.019218426563380832,0.019218426563380832,0.019218426563380832,0.0006910292874720877,0.0006910292874720877,0.0006910292874720877,0.0006910292874720877,4.5292418955495855,4.5292418955495855,4.5292418955495855,4.5292418955495855,112.0,112.0,112.0,112.0,1,5
0,0.011225594860989611,0.011225594860989611,0.011225594860989611,0.011225594860989611,60.0,60.0,60.0,60.0,0.009043369187259186,0.009043369187259186,0.009043369187259186,0.009043369187259186,0.000125962433195043,0.000125962433195043,0.000125962433195043,0.000125962433195043,1.7478702247310145,1.7478702247310145,1.7478702247310145,1.7478702247310145,116.0,116.0,116.0,116.0,1,6
0,0.020290254137410164,0.020290254137410164,0.020290254137410164,0.020290254137410164,76.0,76.0,76.0,76.0,0.014776200219433083,0.014776200219433083,0.014776200219433083,0.014776200219433083,0.00041168388946173423,0.00041168388946173423,0.00041168388946173423,0.00041168388946173423,3.640644282214125,3.640644282214125,3.640644282214125,3.640644282214125,107.0,107.0,107.0,107.0,1,2
0,0.01156559109834179,0.01156559109834179,0.01156559109834179,0.01156559109834179,82.0,82.0,82.0,82.0,0.009090318191086218,0.009090318191086218,0.009090318191086218,0.009090318191086218,0.00013376214502168295,0.00013376214502168295,0.00013376214502168295,0.00013376214502168295,2.2428753649914333,2.2428753649914333,2.2428753649914333,2.2428753649914333,124.0,124.0,124.0,124.0,1,1
0,0.012423193151537457,0.012423193151537457,0.012423193151537457,0.012423193151537457,35.0,35.0,35.0,35.0,0.010225477181524183,0.010225477181524183,0.010225477181524183,0.010225477181524183,0.00015433004675540076,0.00015433004675540076,0.00015433004675540076,0.00015433004675540076,1.2829793595910268,1.2829793595910268,1.2829793595910268,1.2829793595910268,79.0,79.0,79.0,79.0,1,3
0,0.0077496075614606075,0.0077496075614606075,0.0077496075614606075,0.0077496075614606075,77.0,77.0,77.0,77.0,0.0056582016310443685,0.0056582016310443685,0.0056582016310443685,0.0056582016310443685,6.005608021648703e-05,6.005608021648703e-05,6.005608021648703e-05,6.005608021648703e-05,1.148607230675745,1.148607230675745,1.148607230675745,1.148607230675745,111.0,111.0,111.0,111.0,1,6
0,0.006460481202259786,0.006460481202259786,0.006460481202259786,0.006460481202259786,76.0,76.0,76.0,76.0,0.004804328506811495,0.004804328506811495,0.004804328506811495,0.004804328506811495,4.173311820291334e-05,4.173311820291334e-05,4.173311820291334e-05,4.173311820291334e-05,1.014074199334725,1.014074199334725,1.014074199334725,1.014074199334725,103.0,103.0,103.0,103.0,1,4
0,0.024454245421567482,0.024454245421567482,0.024454245421567482,0.024454245421567482,81.0,81.0,81.0,81.0,0.018259934734716373,0.018259934734716373,0.018259934734716373,0.018259934734716373,0.000597916787394241,0.000597916787394241,0.000597916787394241,0.000597916787394241,4.511886387217345,4.511886387217345,4.511886387217345,4.511886387217345,98.0,98.0,98.0,98.0,1,5
0,0.01971251158746926,0.01971251158746926,0.01971251158746926,0.01971251158746926,75.0,75.0,75.0,75.0,0.014715730577718893,0.014715730577718893,0.014715730577718893,0.014715730577718893,0.00038858153774531826,0.00038858153774531826,0.00038858153774531826,0.00038858153774531826,3.5837031375294917,3.5837031375294917,3.5837031375294917,3.5837031375294917,119.0,119.0,119.0,119.0,1,2
0,0.010584027950573524,0.010584027950573524,0.010584027950573524,0.010584027950573524,91.0,91.0,91.0,91.0,0.008122864182667222,0.008122864182667222,0.008122864182667222,0.008122864182667222,0.00011202135215122527,0.00011202135215122527,0.00011202135215122527,0.00011202135215122527,2.148505625867813,2.148505625867813,2.148505625867813,2.148505625867813,126.0,126.0,126.0,126.0,1,1
0,0.007368192090721162,0.007368192090721162,0.007368192090721162,0.007368192090721162,77.0,77.0,77.0,77.0,0.00567798230425564,0.00567798230425564,0.00567798230425564,0.00567798230425564,5.4286502762342055e-05,5.4286502762342055e-05,5.4286502762342055e-05,5.4286502762342055e-05,1.3180043858090071,1.3180043858090071,1.3180043858090071,1.3180043858090071,110.0,110.0,110.0,110.0,1,3
0,0.009908874714952188,0.009908874714952188,0.009908874714952188,0.009908874714952188,65.0,65.0,65.0,65.0,0.007303871144455314,0.007303871144455314,0.007303871144455314,0.007303871144455314,9.808994307992133e-05,9.808994307992133e-05,9.808994307992133e-05,9.808994307992133e-05,1.422289941050623,1.422289941050623,1.422289941050623,1.422289941050623,95.0,95.0,95.0,95.0,1,6
0,0.02456626534578118,0.02456626534578118,0.02456626534578118,0.02456626534578118,78.0,78.0,78.0,78.0,0.01891558387377158,0.01891558387377158,0.01891558387377158,0.01891558387377158,0.0006032086146417933,0.0006032086146417933,0.0006032086146417933,0.0006032086146417933,4.679093432260289,4.679093432260289,4.679093432260289,4.679093432260289,116.0,116.0,116.0,116.0,1,5
0,0.005498039918486188,0.005498039918486188,0.005498039918486188,0.005498039918486188,87.0,87.0,87.0,87.0,0.004259136398319918,0.004259136398319918,0.004259136398319918,0.004259136398319918,3.0215883065850147e-05,3.0215883065850147e-05,3.0215883065850147e-05,3.0215883065850147e-05,1.0973330890487856,1.0973330890487856,1.0973330890487856,1.0973330890487856,116.0,116.0,116.0,116.0,1,3
0,0.007805330796719383,0.007805330796719383,0.007805330796719383,0.007805330796719383,60.0,60.0,60.0,60.0,0.006038650028742918,0.006038650028742918,0.006038650028742918,0.006038650028742918,6.0901411628045226e-05,6.0901411628045226e-05,6.0901411628045226e-05,6.0901411628045226e-05,1.24406990722863,1.24406990722863,1.24406990722863,1.24406990722863,89.0,89.0,89.0,89.0,1,4
0,0.010540331117247713,0.010540331117247713,0.010540331117247713,0.010540331117247713,91.0,91.0,91.0,91.0,0.008248832588929781,0.008248832588929781,0.008248832588929781,0.008248832588929781,0.00011109835404356359,0.00011109835404356359,0.00011109835404356359,0.00011109835404356359,2.098614067606191,2.098614067606191,2.098614067606191,2.098614067606191,114.0,114.0,114.0,114.0,1,1
0,0.012321114881990374,0.012321114881990374,0.012321114881990374,0.012321114881990374,81.0,81.0,81.0,81.0,0.00916878225434025,0.00916878225434025,0.00916878225434025,0.00916878225434025,0.0001518004715823798,0.0001518004715823798,0.0001518004715823798,0.0001518004715823798,2.1219318229204216,2.1219318229204216,2.1219318229204216,2.1219318229204216,102.0,102.0,102.0,102.0,1,2
0,0.007120238806848133,0.007120238806848133,0.007120238806848133,0.007120238806848133,79.0,79.0,79.0,79.0,0.005506768786215186,0.005506768786215186,0.005506768786215186,0.005506768786215186,5.069778187523284e-05,5.069778187523284e-05,5.069778187523284e-05,5.069778187523284e-05,1.2590836183956622,1.2590836183956622,1.2590836183956622,1.2590836183956622,115.0,115.0,115.0,115.0,1,3
0,0.016691947100432293,0.016691947100432293,0.016691947100432293,0.016691947100432293,77.0,77.0,77.0,77.0,0.012549852160122256,0.012549852160122256,0.012549852160122256,0.012549852160122256,0.0002785888108392858,0.0002785888108392858,0.0002785888108392858,0.0002785888108392858,3.114345992786111,3.114345992786111,3.114345992786111,3.114345992786111,104.0,104.0,104.0,104.0,1,2
0,0.005330905969666216,0.005330905969666216,0.005330905969666216,0.005330905969666216,67.0,67.0,67.0,67.0,0.004212982681513255,0.004212982681513255,0.004212982681513255,0.004212982681513255,2.8397971149108863e-05,2.8397971149108863e-05,2.8397971149108863e-05,2.8397971149108863e-05,0.8966986228618246,0.8966986228618246,0.8966986228618246,0.8966986228618246,104.0,104.0,104.0,104.0,1,4
0,0.008981364074575376,0.008981364074575376,0.008981364074575376,0.008981364074575376,99.0,99.0,99.0,99.0,0.0069240739447535594,0.0069240739447535594,0.0069240739447535594,0.0069240739447535594,8.066255189135816e-05,8.066255189135816e-05,8.066255189135816e-05,8.066255189135816e-05,1.893329981096941,1.893329981096941,1.893329981096941,1.893329981096941,129.0,129.0,129.0,129.0,1,1
0,0.014048834170263954,0.014048834170263954,0.014048834170263954,0.014048834170263954,70.0,70.0,70.0,70.0,0.009924762560074834,0.009924762560074834,0.009924762560074834,0.009924762560074834,0.00019736877096211323,0.00019736877096211323,0.00019736877096211323,0.00019736877096211323,2.2691362966013964,2.2691362966013964,2.2691362966013964,2.2691362966013964,90.0,90.0,90.0,90.0,1,6
0,0.03287396287812665,0.03287396287812665,0.03287396287812665,0.03287396287812665,88.0,88.0,88.0,88.0,0.025172950352668658,0.025172950352668658,0.025172950352668658,0.025172950352668658,0.0010806687982048574,0.0010806687982048574,0.0010806687982048574,0.0010806687982048574,6.652813607082107,6.652813607082107,6.652813607082107,6.652813607082107,119.0,119.0,119.0,119.0,1,5
0,0.028592899838965107,0.028592899838965107,0.028592899838965107,0.028592899838965107,76.0,76.0,76.0,76.0,0.01962106948722353,0.01962106948722353,0.01962106948722353,0.01962106948722353,0.0008175534556311486,0.0008175534556311486,0.0008175534556311486,0.0008175534556311486,4.732428373478395,4.732428373478395,4.732428373478395,4.732428373478395,117.0,117.0,117.0,117.0,1,2
0,0.006906546900258033,0.006906546900258033,0.006906546900258033,0.006906546900258033,71.0,71.0,71.0,71.0,0.005594397231486523,0.005594397231486523,0.005594397231486523,0.005594397231486523,4.767874568097359e-05,4.767874568097359e-05,4.767874568097359e-05,4.767874568097359e-05,1.2308421143737203,1.2308421143737203,1.2308421143737203,1.2308421143737203,102.0,102.0,102.0,102.0,1,4
0,0.00761432926458898,0.00761432926458898,0.00761432926458898,0.00761432926458898,103.0,103.0,103.0,103.0,0.005768056526421661,0.005768056526421661,0.005768056526421661,0.005768056526421661,5.797743574592302e-05,5.797743574592302e-05,5.797743574592302e-05,5.797743574592302e-05,1.5902660525500907,1.5902660525500907,1.5902660525500907,1.5902660525500907,120.0,120.0,120.0,120.0,1,1
0,0.03803532301251523,0.03803532301251523,0.03803532301251523,0.03803532301251523,84.0,84.0,84.0,84.0,0.029798730176446693,0.029798730176446693,0.029798730176446693,0.029798730176446693,0.0014466857329413043,0.0014466857329413043,0.0014466857329413043,0.0014466857329413043,6.9185356134760365,6.9185356134760365,6.9185356134760365,6.9185356134760365,95.0,95.0,95.0,95.0,1,5
0,0.013862149291023584,0.013862149291023584,0.013862149291023584,0.013862149291023584,77.0,77.0,77.0,77.0,0.009649306628330367,0.009649306628330367,0.009649306628330367,0.009649306628330367,0.00019215768212232614,0.00019215768212232614,0.00019215768212232614,0.00019215768212232614,2.495472207573865,2.495472207573865,2.495472207573865,2.495472207573865,108.0,108.0,108.0,108.0,1,6
0,0.009150888772551014,0.009150888772551014,0.009150888772551014,0.009150888772551014,80.0,80.0,80.0,80.0,0.006841898964253344,0.006841898964253344,0.006841898964253344,0.006841898964253344,8.372922645003662e-05,8.372922645003662e-05,8.372922645003662e-05,8.372922645003662e-05,1.736674155646551,1.736674155646551,1.736674155646551,1.736674155646551,104.0,104.0,104.0,104.0,1,3
0,0.02852822578126718,0.02852822578126718,0.02852822578126718,0.02852822578126718,79.0,79.0,79.0,79.0,0.021511192034464156,0.021511192034464156,0.021511192034464156,0.021511192034464156,0.0008135782707653251,0.0008135782707653251,0.0008135782707653251,0.0008135782707653251,5.159198563132254,5.159198563132254,5.159198563132254,5.159198563132254,104.0,104.0,104.0,104.0,1,5
0,0.010608700816445956,0.010608700816445956,0.010608700816445956,0.010608700816445956,72.0,72.0,72.0,72.0,0.007298715563375372,0.007298715563375372,0.007298715563375372,0.007298715563375372,0.00011253920801893278,0.00011253920801893278,0.00011253920801893278,0.00011253920801893278,1.6962828369616036,1.6962828369616036,1.6962828369616036,1.6962828369616036,105.0,105.0,105.0,105.0,1,6
0,0.009324701340260692,0.009324701340260692,0.009324701340260692,0.009324701340260692,71.0,71.0,71.0,71.0,0.006591552224285262,0.006591552224285262,0.006591552224285262,0.006591552224285262,8.694615136403832e-05,8.694615136403832e-05,8.694615136403832e-05,8.694615136403832e-05,1.4841975771289406,1.4841975771289406,1.4841975771289406,1.4841975771289406,92.0,92.0,92.0,92.0,1,3
0,0.009653465799809802,0.009653465799809802,0.009653465799809802,0.009653465799809802,87.0,87.0,87.0,87.0,0.007718022924370356,0.007718022924370356,0.007718022924370356,0.007718022924370356,9.316132920627221e-05,9.316132920627221e-05,9.316132920627221e-05,9.316132920627221e-05,1.9808351811062537,1.9808351811062537,1.9808351811062537,1.9808351811062537,122.0,122.0,122.0,122.0,1,1
0,0.007949569816702234,0.007949569816702234,0.007949569816702234,0.007949569816702234,75.0,75.0,75.0,75.0,0.005833448829373576,0.005833448829373576,0.005833448829373576,0.005833448829373576,6.319186460853514e-05,6.319186460853514e-05,6.319186460853514e-05,6.319186460853514e-05,1.3480501343572082,1.3480501343572082,1.3480501343572082,1.3480501343572082,90.0,90.0,90.0,90.0,1,4
0,0.01245963335814977,0.01245963335814977,0.01245963335814977,0.01245963335814977,77.0,77.0,77.0,77.0,0.008948384257851308,0.008948384257851308,0.008948384257851308,0.008948384257851308,0.00015518222825170204,0.00015518222825170204,0.00015518222825170204,0.00015518222825170204,2.1523317521628393,2.1523317521628393,2.1523317521628393,2.1523317521628393,105.0,105.0,105.0,105.0,1,2
0,0.006071190644996713,0.006071190644996713,0.006071190644996713,0.006071190644996713,74.0,74.0,74.0,74.0,0.004609858020559764,0.004609858020559764,0.004609858020559764,0.004609858020559764,3.685690677448615e-05,3.685690677448615e-05,3.685690677448615e-05,3.685690677448615e-05,1.07381549092764,1.07381549092764,1.07381549092764,1.07381549092764,112.0,112.0,112.0,112.0,1,4
0,0.009616217955725339,0.009616217955725339,0.009616217955725339,0.009616217955725339,83.0,83.0,83.0,83.0,0.007400990655447223,0.007400990655447223,0.007400990655447223,0.007400990655447223,9.247136769354468e-05,9.247136769354468e-05,9.247136769354468e-05,9.247136769354468e-05,1.9226992621321324,1.9226992621321324,1.9226992621321324,1.9226992621321324,112.0,112.0,112.0,112.0,1,1
0,0.02271211350390016,0.02271211350390016,0.02271211350390016,0.02271211350390016,84.0,84.0,84.0,84.0,0.01684458199458611,0.01684458199458611,0.01684458199458611,0.01684458199458611,0.0005158382400735766,0.0005158382400735766,0.0005158382400735766,0.0005158382400735766,4.18837384208854,4.18837384208854,4.18837384208854,4.18837384208854,111.0,111.0,111.0,111.0,1,2
0,0.006297501181466464,0.006297501181466464,0.006297501181466464,0.006297501181466464,75.0,75.0,75.0,75.0,0.004764761825570746,0.004764761825570746,0.004764761825570746,0.004764761825570746,3.965381082116438e-05,3.965381082116438e-05,3.965381082116438e-05,3.965381082116438e-05,1.1456453239573676,1.1456453239573676,1.1456453239573676,1.1456453239573676,115.0,115.0,115.0,115.0,1,3
0,0.02240698159370943,0.02240698159370943,0.02240698159370943,0.02240698159370943,97.0,97.0,97.0,97.0,0.01677011070145497,0.01677011070145497,0.01677011070145497,0.01677011070145497,0.0005020144844495141,0.0005020144844495141,0.0005020144844495141,0.0005020144844495141,4.336632385321115,4.336632385321115,4.336632385321115,4.336632385321115,114.0,114.0,114.0,114.0,1,5
0,0.010883646694602176,0.010883646694602176,0.010883646694602176,0.010883646694602176,95.0,95.0,95.0,95.0,0.007514359428472788,0.007514359428472788,0.007514359428472788,0.007514359428472788,0.00011844953465374129,0.00011844953465374129,0.00011844953465374129,0.00011844953465374129,1.9491916438108656,1.9491916438108656,1.9491916438108656,1.9491916438108656,120.0,120.0,120.0,120.0,1,6
0,0.02923703165846753,0.02923703165846753,0.02923703165846753,0.02923703165846753,85.0,85.0,85.0,85.0,0.022211924794292424,0.022211924794292424,0.022211924794292424,0.022211924794292424,0.0008547668363394728,0.0008547668363394728,0.0008547668363394728,0.0008547668363394728,5.334232563574216,5.334232563574216,5.334232563574216,5.334232563574216,99.0,99.0,99.0,99.0,1,5
0,0.013578681029446451,0.013578681029446451,0.013578681029446451,0.013578681029446451,86.0,86.0,86.0,86.0,0.009347912044341562,0.009347912044341562,0.009347912044341562,0.009347912044341562,0.00018437702947220194,0.00018437702947220194,0.00018437702947220194,0.00018437702947220194,2.408987503157185,2.408987503157185,2.408987503157185,2.408987503157185,111.0,111.0,111.0,111.0,1,1
0,0.0071640689098205305,0.0071640689098205305,0.0071640689098205305,0.0071640689098205305,74.0,74.0,74.0,74.0,0.005259856597229746,0.005259856597229746,0.005259856597229746,0.005259856597229746,5.1318329232296345e-05,5.1318329232296345e-05,5.1318329232296345e-05,5.1318329232296345e-05,1.1734023922580312,1.1734023922580312,1.1734023922580312,1.1734023922580312,101.0,101.0,101.0,101.0,1,4
0,0.008933888174428506,0.008933888174428506,0.008933888174428506,0.008933888174428506,81.0,81.0,81.0,81.0,0.0064992668523559316,0.0064992668523559316,0.0064992668523559316,0.0064992668523559316,7.98101488731948e-05,7.98101488731948e-05,7.98101488731948e-05,7.98101488731948e-05,1.534261393765544,1.534261393765544,1.534261393765544,1.534261393765544,112.0,112.0,112.0,112.0,1,6
0,0.01806103527675777,0.01806103527675777,0.01806103527675777,0.01806103527675777,83.0,83.0,83.0,83.0,0.013447863339814348,0.013447863339814348,0.013447863339814348,0.013447863339814348,0.00032613077496088436,0.00032613077496088436,0.00032613077496088436,0.00032613077496088436,3.4529436848611756,3.4529436848611756,3.4529436848611756,3.4529436848611756,104.0,104.0,104.0,104.0,1,2
0,0.008235110197652887,0.008235110197652887,0.008235110197652887,0.008235110197652887,78.0,78.0,78.0,78.0,0.006083188614216599,0.006083188614216599,0.006083188614216599,0.006083188614216599,6.779630506632798e-05,6.779630506632798e-05,6.779630506632798e-05,6.779630506632798e-05,1.4435788312457785,1.4435788312457785,1.4435788312457785,1.4435788312457785,123.0,123.0,123.0,123.0,1,3
0,0.012978292981952275,0.012978292981952275,0.012978292981952275,0.012978292981952275,77.0,77.0,77.0,77.0,0.009012804433809756,0.009012804433809756,0.009012804433809756,0.009012804433809756,0.00016840585867217915,0.00016840585867217915,0.00016840585867217915,0.00016840585867217915,2.2018892359660494,2.2018892359660494,2.2018892359660494,2.2018892359660494,103.0,103.0,103.0,103.0,1,6
0,0.012082873759988464,0.012082873759988464,0.012082873759988464,0.012082873759988464,82.0,82.0,82.0,82.0,0.008935379081432817,0.008935379081432817,0.008935379081432817,0.008935379081432817,0.00014595994539369714,0.00014595994539369714,0.00014595994539369714,0.00014595994539369714,2.1723918740989197,2.1723918740989197,2.1723918740989197,2.1723918740989197,110.0,110.0,110.0,110.0,1,3
0,0.007386632402312073,0.007386632402312073,0.007386632402312073,0.007386632402312073,83.0,83.0,83.0,83.0,0.005494241267822121,0.005494241267822121,0.005494241267822121,0.005494241267822121,5.4535304229119136e-05,5.4535304229119136e-05,5.4535304229119136e-05,5.4535304229119136e-05,1.4561307853883525,1.4561307853883525,1.4561307853883525,1.4561307853883525,123.0,123.0,123.0,123.0,1,1
0,0.05799832506384797,0.05799832506384797,0.05799832506384797,0.05799832506384797,78.0,78.0,78.0,78.0,0.04295064459699191,0.04295064459699191,0.04295064459699191,0.04295064459699191,0.0033637606640866125,0.0033637606640866125,0.0033637606640866125,0.0033637606640866125,10.643107167645065,10.643107167645065,10.643107167645065,10.643107167645065,103.0,103.0,103.0,103.0,1,5
0,0.009495787896798917,0.009495787896798917,0.009495787896798917,0.009495787896798917,75.0,75.0,75.0,75.0,0.0070256841321144035,0.0070256841321144035,0.0070256841321144035,0.0070256841321144035,9.015448449095211e-05,9.015448449095211e-05,9.015448449095211e-05,9.015448449095211e-05,1.624549157041363,1.624549157041363,1.624549157041363,1.624549157041363,114.0,114.0,114.0,114.0,1,4
0,0.03206617202515841,0.03206617202515841,0.03206617202515841,0.03206617202515841,75.0,75.0,75.0,75.0,0.022279003853278002,0.022279003853278002,0.022279003853278002,0.022279003853278002,0.0010281944728113975,0.0010281944728113975,0.0010281944728113975,0.0010281944728113975,5.304894676014884,5.304894676014884,5.304894676014884,5.304894676014884,106.0,106.0,106.0,106.0,1,2
0,0.011414353307189892,0.011414353307189892,0.011414353307189892,0.011414353307189892,72.0,72.0,72.0,72.0,0.008392213640139668,0.008392213640139668,0.008392213640139668,0.008392213640139668,0.0001302748691453889,0.0001302748691453889,0.0001302748691453889,0.0001302748691453889,2.04202018143338,2.04202018143338,2.04202018143338,2.04202018143338,113.0,113.0,113.0,113.0,1,4
0,0.02959986297117291,0.02959986297117291,0.02959986297117291,0.02959986297117291,74.0,74.0,74.0,74.0,0.022665302807909432,0.022665302807909432,0.022665302807909432,0.022665302807909432,0.000875932625306133,0.000875932625306133,0.000875932625306133,0.000875932625306133,5.299857162171756,5.299857162171756,5.299857162171756,5.299857162171756,86.0,86.0,86.0,86.0,1,5
0,0.009707014879972456,0.009707014879972456,0.009707014879972456,0.009707014879972456,89.0,89.0,89.0,89.0,0.0074041064405256886,0.0074041064405256886,0.0074041064405256886,0.0074041064405256886,9.422613785643109e-05,9.422613785643109e-05,9.422613785643109e-05,9.422613785643109e-05,1.995153835260831,1.995153835260831,1.995153835260831,1.995153835260831,121.0,121.0,121.0,121.0,1,1
0,0.007633776169467711,0.007633776169467711,0.007633776169467711,0.007633776169467711,79.0,79.0,79.0,79.0,0.0056163859516526,0.0056163859516526,0.0056163859516526,0.0056163859516526,5.82739490225704e-05,5.82739490225704e-05,5.82739490225704e-05,5.82739490225704e-05,1.3125064671475295,1.3125064671475295,1.3125064671475295,1.3125064671475295,101.0,101.0,101.0,101.0,1,3
0,0.015327673096537436,0.015327673096537436,0.015327673096537436,0.015327673096537436,78.0,78.0,78.0,78.0,0.011169670296834128,0.011169670296834128,0.011169670296834128,0.011169670296834128,0.0002349355581715469,0.0002349355581715469,0.0002349355581715469,0.0002349355581715469,2.473251293202553,2.473251293202553,2.473251293202553,2.473251293202553,106.0,106.0,106.0,106.0,1,6
0,0.02869002938448759,0.02869002938448759,0.02869002938448759,0.02869002938448759,73.0,73.0,73.0,73.0,0.02133900330646118,0.02133900330646118,0.02133900330646118,0.02133900330646118,0.0008227426000555119,0.0008227426000555119,0.0008227426000555119,0.0008227426000555119,4.812073012160033,4.812073012160033,4.812073012160033,4.812073012160033,100.0,100.0,100.0,100.0,1,2
0,0.00799361954279893,0.00799361954279893,0.00799361954279893,0.00799361954279893,90.0,90.0,90.0,90.0,0.006060147843101231,0.006060147843101231,0.006060147843101231,0.006060147843101231,6.388155272564368e-05,6.388155272564368e-05,6.388155272564368e-05,6.388155272564368e-05,1.5848959849915587,1.5848959849915587,1.5848959849915587,1.5848959849915587,118.0,118.0,118.0,118.0,1,1
0,0.009936505120027403,0.009936505120027403,0.009936505120027403,0.009936505120027403,77.0,77.0,77.0,77.0,0.007370243175699351,0.007370243175699351,0.007370243175699351,0.007370243175699351,9.873330069751973e-05,9.873330069751973e-05,9.873330069751973e-05,9.873330069751973e-05,1.7656402460935312,1.7656402460935312,1.7656402460935312,1.7656402460935312,109.0,109.0,109.0,109.0,1,3
0,0.006819596861571235,0.006819596861571235,0.006819596861571235,0.006819596861571235,72.0,72.0,72.0,72.0,0.005499132747541886,0.005499132747541886,0.005499132747541886,0.005499132747541886,4.6506560849217964e-05,4.6506560849217964e-05,4.6506560849217964e-05,4.6506560849217964e-05,1.2681493585433394,1.2681493585433394,1.2681493585433394,1.2681493585433394,102.0,102.0,102.0,102.0,1,4
0,0.012826416120891183,0.012826416120891183,0.012826416120891183,0.012826416120891183,80.0,80.0,80.0,80.0,0.008638355955522526,0.008638355955522526,0.008638355955522526,0.008638355955522526,0.00016447332365257105,0.00016447332365257105,0.00016447332365257105,0.00016447332365257105,2.0252012166640094,2.0252012166640094,2.0252012166640094,2.0252012166640094,114.0,114.0,114.0,114.0,1,6
0,0.03376086463457328,0.03376086463457328,0.03376086463457328,0.03376086463457328,88.0,88.0,88.0,88.0,0.0248840556592297,0.0248840556592297,0.0248840556592297,0.0248840556592297,0.0011397675057975426,0.0011397675057975426,0.0011397675057975426,0.0011397675057975426,6.174133647666219,6.174133647666219,6.174133647666219,6.174133647666219,119.0,119.0,119.0,119.0,1,2
0,0.048441483510742685,0.048441483510742685,0.048441483510742685,0.048441483510742685,80.0,80.0,80.0,80.0,0.03631250514613061,0.03631250514613061,0.03631250514613061,0.03631250514613061,0.002346512906325602,0.002346512906325602,0.002346512906325602,0.002346512906325602,8.466821399683154,8.466821399683154,8.466821399683154,8.466821399683154,99.0,99.0,99.0,99.0,1,5
0,0.00848210546069677,0.00848210546069677,0.00848210546069677,0.00848210546069677,69.0,69.0,69.0,69.0,0.006570416418686229,0.006570416418686229,0.006570416418686229,0.006570416418686229,7.194590186753206e-05,7.194590186753206e-05,7.194590186753206e-05,7.194590186753206e-05,1.405415991113577,1.405415991113577,1.405415991113577,1.405415991113577,112.0,112.0,112.0,112.0,1,4
0,0.05274949991299104,0.05274949991299104,0.05274949991299104,0.05274949991299104,80.0,80.0,80.0,80.0,0.04098973149145575,0.04098973149145575,0.04098973149145575,0.04098973149145575,0.0027825075208954618,0.0027825075208954618,0.0027825075208954618,0.0027825075208954618,9.427894692906655,9.427894692906655,9.427894692906655,9.427894692906655,102.0,102.0,102.0,102.0,1,5
0,0.01957779596784018,0.01957779596784018,0.01957779596784018,0.01957779596784018,69.0,69.0,69.0,69.0,0.011726366683311049,0.011726366683311049,0.011726366683311049,0.011726366683311049,0.0003832895444614047,0.0003832895444614047,0.0003832895444614047,0.0003832895444614047,2.612587791684221,2.612587791684221,2.612587791684221,2.612587791684221,102.0,102.0,102.0,102.0,1,6
0,0.011187934031375702,0.011187934031375702,0.011187934031375702,0.011187934031375702,79.0,79.0,79.0,79.0,0.008286574912334343,0.008286574912334343,0.008286574912334343,0.008286574912334343,0.0001251692419992331,0.0001251692419992331,0.0001251692419992331,0.0001251692419992331,1.9674961669333169,1.9674961669333169,1.9674961669333169,1.9674961669333169,120.0,120.0,120.0,120.0,1,1
0,0.026115754899800794,0.026115754899800794,0.026115754899800794,0.026115754899800794,82.0,82.0,82.0,82.0,0.019416100696815503,0.019416100696815503,0.019416100696815503,0.019416100696815503,0.0006819770791538852,0.0006819770791538852,0.0006819770791538852,0.0006819770791538852,4.900047862285363,4.900047862285363,4.900047862285363,4.900047862285363,108.0,108.0,108.0,108.0,1,2
0,0.012698658506600439,0.012698658506600439,0.012698658506600439,0.012698658506600439,77.0,77.0,77.0,77.0,0.009317455045836172,0.009317455045836172,0.009317455045836172,0.009317455045836172,0.0001612232285384495,0.0001612232285384495,0.0001612232285384495,0.0001612232285384495,2.27702216862999,2.27702216862999,2.27702216862999,2.27702216862999,100.0,100.0,100.0,100.0,1,3
0,0.022994204462434192,0.022994204462434192,0.022994204462434192,0.022994204462434192,78.0,78.0,78.0,78.0,0.016306027134550677,0.016306027134550677,0.016306027134550677,0.016306027134550677,0.0005287331079614785,0.0005287331079614785,0.0005287331079614785,0.0005287331079614785,3.9565182936452423,3.9565182936452423,3.9565182936452423,3.9565182936452423,101.0,101.0,101.0,101.0,1,6
0,0.012030667049376036,0.012030667049376036,0.012030667049376036,0.012030667049376036,85.0,85.0,85.0,85.0,0.00825550744254562,0.00825550744254562,0.00825550744254562,0.00825550744254562,0.00014473041267324424,0.00014473041267324424,0.00014473041267324424,0.00014473041267324424,1.947402288343297,1.947402288343297,1.947402288343297,1.947402288343297,104.0,104.0,104.0,104.0,1,4
0,0.035484846485855676,0.035484846485855676,0.035484846485855676,0.035484846485855676,80.0,80.0,80.0,80.0,0.0260858134406892,0.0260858134406892,0.0260858134406892,0.0260858134406892,0.0012591493831968323,0.0012591493831968323,0.0012591493831968323,0.0012591493831968323,6.161469583653497,6.161469583653497,6.161469583653497,6.161469583653497,109.0,109.0,109.0,109.0,1,5
0,0.010129527194833229,0.010129527194833229,0.010129527194833229,0.010129527194833229,72.0,72.0,72.0,72.0,0.007800496228159859,0.007800496228159859,0.007800496228159859,0.007800496228159859,0.00010257044331834997,0.00010257044331834997,0.00010257044331834997,0.00010257044331834997,1.72065643314441,1.72065643314441,1.72065643314441,1.72065643314441,103.0,103.0,103.0,103.0,1,3
0,0.008048424303049796,0.008048424303049796,0.008048424303049796,0.008048424303049796,90.0,90.0,90.0,90.0,0.0062974293085539925,0.0062974293085539925,0.0062974293085539925,0.0062974293085539925,6.477704123961191e-05,6.477704123961191e-05,6.477704123961191e-05,6.477704123961191e-05,1.5754379254359936,1.5754379254359936,1.5754379254359936,1.5754379254359936,114.0,114.0,114.0,114.0,1,1
0,0.02693617776751105,0.02693617776751105,0.02693617776751105,0.02693617776751105,84.0,84.0,84.0,84.0,0.020118528951164113,0.020118528951164113,0.020118528951164113,0.020118528951164113,0.0007255546644057745,0.0007255546644057745,0.0007255546644057745,0.0007255546644057745,5.123250918096324,5.123250918096324,5.123250918096324,5.123250918096324,103.0,103.0,103.0,103.0,1,2
0,0.01714006486096331,0.01714006486096331,0.01714006486096331,0.01714006486096331,69.0,69.0,69.0,69.0,0.01176115685556765,0.01176115685556765,0.01176115685556765,0.01176115685556765,0.00029370314469829184,0.00029370314469829184,0.00029370314469829184,0.00029370314469829184,2.5502931699421287,2.5502931699421287,2.5502931699421287,2.5502931699421287,100.0,100.0,100.0,100.0,1,3
0,0.01881908076328584,0.01881908076328584,0.01881908076328584,0.01881908076328584,75.0,75.0,75.0,75.0,0.013445183289642894,0.013445183289642894,0.013445183289642894,0.013445183289642894,0.0003541270941484306,0.0003541270941484306,0.0003541270941484306,0.0003541270941484306,3.2437024020418495,3.2437024020418495,3.2437024020418495,3.2437024020418495,106.0,106.0,106.0,106.0,1,6
0,0.038066716397880854,0.038066716397880854,0.038066716397880854,0.038066716397880854,81.0,81.0,81.0,81.0,0.027724938228577408,0.027724938228577408,0.027724938228577408,0.027724938228577408,0.001449053668777332,0.001449053668777332,0.001449053668777332,0.001449053668777332,6.951048199982659,6.951048199982659,6.951048199982659,6.951048199982659,108.0,108.0,108.0,108.0,1,2
0,0.009729418463864709,0.009729418463864709,0.009729418463864709,0.009729418463864709,90.0,90.0,90.0,90.0,0.007465313501381124,0.007465313501381124,0.007465313501381124,0.007465313501381124,9.464889021271374e-05,9.464889021271374e-05,9.464889021271374e-05,9.464889021271374e-05,1.9130211424258563,1.9130211424258563,1.9130211424258563,1.9130211424258563,127.0,127.0,127.0,127.0,1,1
0,0.03716931592282632,0.03716931592282632,0.03716931592282632,0.03716931592282632,85.0,85.0,85.0,85.0,0.02701152662975085,0.02701152662975085,0.02701152662975085,0.02701152662975085,0.0013814286251617102,0.0013814286251617102,0.0013814286251617102,0.0013814286251617102,6.649122406594886,6.649122406594886,6.649122406594886,6.649122406594886,106.0,106.0,106.0,106.0,1,5
0,0.015353738313120483,0.015353738313120483,0.015353738313120483,0.015353738313120483,71.0,71.0,71.0,71.0,0.010980883741083771,0.010980883741083771,0.010980883741083771,0.010980883741083771,0.00023572763004032468,0.00023572763004032468,0.00023572763004032468,0.00023572763004032468,2.5904528810237823,2.5904528810237823,2.5904528810237823,2.5904528810237823,99.0,99.0,99.0,99.0,1,4
0,0.008782609454525116,0.008782609454525116,0.008782609454525116,0.008782609454525116,76.0,76.0,76.0,76.0,0.0064640796388525865,0.0064640796388525865,0.0064640796388525865,0.0064640796388525865,7.713413029116276e-05,7.713413029116276e-05,7.713413029116276e-05,7.713413029116276e-05,1.438546808683388,1.438546808683388,1.438546808683388,1.438546808683388,106.0,106.0,106.0,106.0,1,4
0,0.02875053590052833,0.02875053590052833,0.02875053590052833,0.02875053590052833,75.0,75.0,75.0,75.0,0.021750570798969023,0.021750570798969023,0.021750570798969023,0.021750570798969023,0.0008264261490477426,0.0008264261490477426,0.0008264261490477426,0.0008264261490477426,5.288862339962893,5.288862339962893,5.288862339962893,5.288862339962893,109.0,109.0,109.0,109.0,1,2
0,0.013906123335021111,0.013906123335021111,0.013906123335021111,0.013906123335021111,69.0,69.0,69.0,69.0,0.010217822451962828,0.010217822451962828,0.010217822451962828,0.010217822451962828,0.00019334466797451744,0.00019334466797451744,0.00019334466797451744,0.00019334466797451744,2.3451853142319874,2.3451853142319874,2.3451853142319874,2.3451853142319874,102.0,102.0,102.0,102.0,1,6
0,0.007539174787971379,0.007539174787971379,0.007539174787971379,0.007539174787971379,88.0,88.0,88.0,88.0,0.0060504109327371965,0.0060504109327371965,0.0060504109327371965,0.0060504109327371965,5.683832713433376e-05,5.683832713433376e-05,5.683832713433376e-05,5.683832713433376e-05,1.4965511263343831,1.4965511263343831,1.4965511263343831,1.4965511263343831,109.0,109.0,109.0,109.0,1,1
0,0.039147754665167005,0.039147754665167005,0.039147754665167005,0.039147754665167005,78.0,78.0,78.0,78.0,0.02994707538086061,0.02994707538086061,0.02994707538086061,0.02994707538086061,0.0015324689993920495,0.0015324689993920495,0.0015324689993920495,0.0015324689993920495,7.138745835554867,7.138745835554867,7.138745835554867,7.138745835554867,117.0,117.0,117.0,117.0,1,5
0,0.01150622067576602,0.01150622067576602,0.01150622067576602,0.01150622067576602,76.0,76.0,76.0,76.0,0.008264728016271516,0.008264728016271516,0.008264728016271516,0.008264728016271516,0.0001323647320265146,0.0001323647320265146,0.0001323647320265146,0.0001323647320265146,1.8705420427356647,1.8705420427356647,1.8705420427356647,1.8705420427356647,109.0,109.0,109.0,109.0,1,3
0,0.032222983253938645,0.032222983253938645,0.032222983253938645,0.032222983253938645,97.0,97.0,97.0,97.0,0.023509204412585052,0.023509204412585052,0.023509204412585052,0.023509204412585052,0.0010383204647272564,0.0010383204647272564,0.0010383204647272564,0.0010383204647272564,6.303555282795211,6.303555282795211,6.303555282795211,6.303555282795211,112.0,112.0,112.0,112.0,1,2
0,0.03409330500405481,0.03409330500405481,0.03409330500405481,0.03409330500405481,70.0,70.0,70.0,70.0,0.02575592469451694,0.02575592469451694,0.02575592469451694,0.02575592469451694,0.0011621235860426319,0.0011621235860426319,0.0011621235860426319,0.0011621235860426319,5.97269039743879,5.97269039743879,5.97269039743879,5.97269039743879,96.0,96.0,96.0,96.0,1,5
0,0.011104899334296928,0.011104899334296928,0.011104899334296928,0.011104899334296928,80.0,80.0,80.0,80.0,0.00786894940095932,0.00786894940095932,0.00786894940095932,0.00786894940095932,0.0001233180256469441,0.0001233180256469441,0.0001233180256469441,0.0001233180256469441,1.793018765186428,1.793018765186428,1.793018765186428,1.793018765186428,110.0,110.0,110.0,110.0,1,3
0,0.007504153844556336,0.007504153844556336,0.007504153844556336,0.007504153844556336,78.0,78.0,78.0,78.0,0.005609503729146428,0.005609503729146428,0.005609503729146428,0.005609503729146428,5.630915149991409e-05,5.630915149991409e-05,5.630915149991409e-05,5.630915149991409e-05,1.4372142872916527,1.4372142872916527,1.4372142872916527,1.4372142872916527,122.0,122.0,122.0,122.0,1,1
0,0.012118661522666472,0.012118661522666472,0.012118661522666472,0.012118661522666472,77.0,77.0,77.0,77.0,0.008753693361125912,0.008753693361125912,0.008753693361125912,0.008753693361125912,0.0001467835705727614,0.0001467835705727614,0.0001467835705727614,0.0001467835705727614,2.070549509670721,2.070549509670721,2.070549509670721,2.070549509670721,102.0,102.0,102.0,102.0,1,6
0,0.007918691938601041,0.007918691938601041,0.007918691938601041,0.007918691938601041,70.0,70.0,70.0,70.0,0.005903904053914523,0.005903904053914523,0.005903904053914523,0.005903904053914523,6.269768863277975e-05,6.269768863277975e-05,6.269768863277975e-05,6.269768863277975e-05,1.243308964669953,1.243308964669953,1.243308964669953,1.243308964669953,105.0,105.0,105.0,105.0,1,4
0,0.011217588558501641,0.011217588558501641,0.011217588558501641,0.011217588558501641,77.0,77.0,77.0,77.0,0.008285403304107056,0.008285403304107056,0.008285403304107056,0.008285403304107056,0.00012582949637299072,0.00012582949637299072,0.00012582949637299072,0.00012582949637299072,1.9577164627823556,1.9577164627823556,1.9577164627823556,1.9577164627823556,104.0,104.0,104.0,104.0,1,3
0,0.01606950732615534,0.01606950732615534,0.01606950732615534,0.01606950732615534,62.0,62.0,62.0,62.0,0.011527905142629073,0.011527905142629073,0.011527905142629073,0.011527905142629073,0.0002582262672137983,0.0002582262672137983,0.0002582262672137983,0.0002582262672137983,2.4371298071712113,2.4371298071712113,2.4371298071712113,2.4371298071712113,89.0,89.0,89.0,89.0,1,4
0,0.009843582867300573,0.009843582867300573,0.009843582867300573,0.009843582867300573,79.0,79.0,79.0,79.0,0.007636751844172759,0.007636751844172759,0.007636751844172759,0.007636751844172759,9.68957516641345e-05,9.68957516641345e-05,9.68957516641345e-05,9.68957516641345e-05,1.971367394874422,1.971367394874422,1.971367394874422,1.971367394874422,116.0,116.0,116.0,116.0,1,1
0,0.05590811200044232,0.05590811200044232,0.05590811200044232,0.05590811200044232,67.0,67.0,67.0,67.0,0.04245100640032783,0.04245100640032783,0.04245100640032783,0.04245100640032783,0.0031256586835593414,0.0031256586835593414,0.0031256586835593414,0.0031256586835593414,9.01617920109397,9.01617920109397,9.01617920109397,9.01617920109397,91.0,91.0,91.0,91.0,1,5
0,0.014468907392087123,0.014468907392087123,0.014468907392087123,0.014468907392087123,66.0,66.0,66.0,66.0,0.010733260093350135,0.010733260093350135,0.010733260093350135,0.010733260093350135,0.00020934735320353155,0.00020934735320353155,0.00020934735320353155,0.00020934735320353155,2.4424788403418605,2.4424788403418605,2.4424788403418605,2.4424788403418605,97.0,97.0,97.0,97.0,1,6
0,0.03355563476870405,0.03355563476870405,0.03355563476870405,0.03355563476870405,86.0,86.0,86.0,86.0,0.024259150664075812,0.024259150664075812,0.024259150664075812,0.024259150664075812,0.0011259322055601336,0.0011259322055601336,0.0011259322055601336,0.0011259322055601336,5.935606723163307,5.935606723163307,5.935606723163307,5.935606723163307,109.0,109.0,109.0,109.0,1,2
0,0.015331892516828502,0.015331892516828502,0.015331892516828502,0.015331892516828502,77.0,77.0,77.0,77.0,0.010549462496247351,0.010549462496247351,0.010549462496247351,0.010549462496247351,0.00023498345193943468,0.00023498345193943468,0.00023498345193943468,0.00023498345193943468,2.3533272378189016,2.3533272378189016,2.3533272378189016,2.3533272378189016,106.0,106.0,106.0,106.0,1,3
0,0.009088579904122757,0.009088579904122757,0.009088579904122757,0.009088579904122757,95.0,95.0,95.0,95.0,0.0070204438793579045,0.0070204438793579045,0.0070204438793579045,0.0070204438793579045,8.259859305864635e-05,8.259859305864635e-05,8.259859305864635e-05,8.259859305864635e-05,1.9228516282999912,1.9228516282999912,1.9228516282999912,1.9228516282999912,130.0,130.0,130.0,130.0,1,1
0,0.03168558049489404,0.03168558049489404,0.03168558049489404,0.03168558049489404,74.0,74.0,74.0,74.0,0.024541633409176554,0.024541633409176554,0.024541633409176554,0.024541633409176554,0.0010039693449822719,0.0010039693449822719,0.0010039693449822719,0.0010039693449822719,5.534914195353396,5.534914195353396,5.534914195353396,5.534914195353396,98.0,98.0,98.0,98.0,1,5
0,0.01157110911242691,0.01157110911242691,0.01157110911242691,0.01157110911242691,67.0,67.0,67.0,67.0,0.008438104329075055,0.008438104329075055,0.008438104329075055,0.008438104329075055,0.00013389037036348636,0.00013389037036348636,0.00013389037036348636,0.00013389037036348636,1.7454356620236822,1.7454356620236822,1.7454356620236822,1.7454356620236822,93.0,93.0,93.0,93.0,1,4
0,0.011071314983244785,0.011071314983244785,0.011071314983244785,0.011071314983244785,76.0,76.0,76.0,76.0,0.007906613660629424,0.007906613660629424,0.007906613660629424,0.007906613660629424,0.00012257083303012157,0.00012257083303012157,0.00012257083303012157,0.00012257083303012157,1.8785847489775986,1.8785847489775986,1.8785847489775986,1.8785847489775986,97.0,97.0,97.0,97.0,1,6
0,0.033159564120928936,0.033159564120928936,0.033159564120928936,0.033159564120928936,78.0,78.0,78.0,78.0,0.024378871776911303,0.024378871776911303,0.024378871776911303,0.024378871776911303,0.0010995381754598356,0.0010995381754598356,0.0010995381754598356,0.0010995381754598356,5.967067031208284,5.967067031208284,5.967067031208284,5.967067031208284,102.0,102.0,102.0,102.0,1,2
0,0.013848345682858509,0.013848345682858509,0.013848345682858509,0.013848345682858509,82.0,82.0,82.0,82.0,0.010185230018565033,0.010185230018565033,0.010185230018565033,0.010185230018565033,0.00019176642569551587,0.00019176642569551587,0.00019176642569551587,0.00019176642569551587,2.3194099691976167,2.3194099691976167,2.3194099691976167,2.3194099691976167,101.0,101.0,101.0,101.0,1,3
0,0.033707856598870795,0.033707856598870795,0.033707856598870795,0.033707856598870795,75.0,75.0,75.0,75.0,0.025323088252276582,0.025323088252276582,0.025323088252276582,0.025323088252276582,0.0011361862302558885,0.0011361862302558885,0.0011361862302558885,0.0011361862302558885,5.869487895591093,5.869487895591093,5.869487895591093,5.869487895591093,102.0,102.0,102.0,102.0,1,5
0,0.01770676417248131,0.01770676417248131,0.01770676417248131,0.01770676417248131,75.0,75.0,75.0,75.0,0.013022446184805539,0.013022446184805539,0.013022446184805539,0.013022446184805539,0.0003132870705768885,0.0003132870705768885,0.0003132870705768885,0.0003132870705768885,2.9751096711453697,2.9751096711453697,2.9751096711453697,2.9751096711453697,104.0,104.0,104.0,104.0,1,6
0,0.04078268497857489,0.04078268497857489,0.04078268497857489,0.04078268497857489,88.0,88.0,88.0,88.0,0.03230517575921906,0.03230517575921906,0.03230517575921906,0.03230517575921906,0.0016631886058409288,0.0016631886058409288,0.0016631886058409288,0.0016631886058409288,8.11478711855401,8.11478711855401,8.11478711855401,8.11478711855401,103.0,103.0,103.0,103.0,1,2
0,0.009930965013614618,0.009930965013614618,0.009930965013614618,0.009930965013614618,89.0,89.0,89.0,89.0,0.0075307142032436415,0.0075307142032436415,0.0075307142032436415,0.0075307142032436415,9.861923787046311e-05,9.861923787046311e-05,9.861923787046311e-05,9.861923787046311e-05,1.9911142767656862,1.9911142767656862,1.9911142767656862,1.9911142767656862,124.0,124.0,124.0,124.0,1,1
0,0.006490439460853888,0.006490439460853888,0.006490439460853888,0.006490439460853888,63.0,63.0,63.0,63.0,0.005054448818715136,0.005054448818715136,0.005054448818715136,0.005054448818715136,4.212505561828828e-05,4.212505561828828e-05,4.212505561828828e-05,4.212505561828828e-05,1.0981941621393339,1.0981941621393339,1.0981941621393339,1.0981941621393339,109.0,109.0,109.0,109.0,1,4
0,0.009675326701693592,0.009675326701693592,0.009675326701693592,0.009675326701693592,75.0,75.0,75.0,75.0,0.006812853525791721,0.006812853525791721,0.006812853525791721,0.006812853525791721,9.361152431950941e-05,9.361152431950941e-05,9.361152431950941e-05,9.361152431950941e-05,1.5405574447900956,1.5405574447900956,1.5405574447900956,1.5405574447900956,111.0,111.0,111.0,111.0,1,6
0,0.010643986324550849,0.010643986324550849,0.010643986324550849,0.010643986324550849,74.0,74.0,74.0,74.0,0.007203567677646676,0.007203567677646676,0.007203567677646676,0.007203567677646676,0.00011327988959055088,0.00011327988959055088,0.00011327988959055088,0.00011327988959055088,1.6514275020336808,1.6514275020336808,1.6514275020336808,1.6514275020336808,106.0,106.0,106.0,106.0,1,3
0,0.03670270200090755,0.03670270200090755,0.03670270200090755,0.03670270200090755,84.0,84.0,84.0,84.0,0.025071612542644325,0.025071612542644325,0.025071612542644325,0.025071612542644325,0.0013470318152905116,0.0013470318152905116,0.0013470318152905116,0.0013470318152905116,6.3064807944509695,6.3064807944509695,6.3064807944509695,6.3064807944509695,106.0,106.0,106.0,106.0,1,2
0,0.010860768738215341,0.010860768738215341,0.010860768738215341,0.010860768738215341,84.0,84.0,84.0,84.0,0.008115123315428217,0.008115123315428217,0.008115123315428217,0.008115123315428217,0.00011794221248161157,0.00011794221248161157,0.00011794221248161157,0.00011794221248161157,2.1655346126606814,2.1655346126606814,2.1655346126606814,2.1655346126606814,114.0,114.0,114.0,114.0,1,1
0,0.009381990441198326,0.009381990441198326,0.009381990441198326,0.009381990441198326,69.0,69.0,69.0,69.0,0.007058506133511864,0.007058506133511864,0.007058506133511864,0.007058506133511864,8.800919514835878e-05,8.800919514835878e-05,8.800919514835878e-05,8.800919514835878e-05,1.4623376376376789,1.4623376376376789,1.4623376376376789,1.4623376376376789,98.0,98.0,98.0,98.0,1,4
0,0.028852364389843337,0.028852364389843337,0.028852364389843337,0.028852364389843337,88.0,88.0,88.0,88.0,0.02277635215987913,0.02277635215987913,0.02277635215987913,0.02277635215987913,0.0008323295974791627,0.0008323295974791627,0.0008323295974791627,0.0008323295974791627,5.732946965388251,5.732946965388251,5.732946965388251,5.732946965388251,102.0,102.0,102.0,102.0,1,5
0,0.009538081718360096,0.009538081718360096,0.009538081718360096,0.009538081718360096,62.0,62.0,62.0,62.0,0.00625727119977444,0.00625727119977444,0.00625727119977444,0.00625727119977444,9.094947955593843e-05,9.094947955593843e-05,9.094947955593843e-05,9.094947955593843e-05,1.3402586574446995,1.3402586574446995,1.3402586574446995,1.3402586574446995,103.0,103.0,103.0,103.0,1,4
0,0.009608429664419313,0.009608429664419313,0.009608429664419313,0.009608429664419313,90.0,90.0,90.0,90.0,0.007586486886341998,0.007586486886341998,0.007586486886341998,0.007586486886341998,9.229599293419325e-05,9.229599293419325e-05,9.229599293419325e-05,9.229599293419325e-05,1.9349471660037045,1.9349471660037045,1.9349471660037045,1.9349471660037045,114.0,114.0,114.0,114.0,1,1
0,0.03792432200172274,0.03792432200172274,0.03792432200172274,0.03792432200172274,74.0,74.0,74.0,74.0,0.028709470172026342,0.028709470172026342,0.028709470172026342,0.028709470172026342,0.0014381466151682503,0.0014381466151682503,0.0014381466151682503,0.0014381466151682503,6.616513280157682,6.616513280157682,6.616513280157682,6.616513280157682,99.0,99.0,99.0,99.0,1,2
0,0.046363000263453254,0.046363000263453254,0.046363000263453254,0.046363000263453254,73.0,73.0,73.0,73.0,0.03667417819307067,0.03667417819307067,0.03667417819307067,0.03667417819307067,0.002149527769400397,0.002149527769400397,0.002149527769400397,0.002149527769400397,8.343178767636338,8.343178767636338,8.343178767636338,8.343178767636338,100.0,100.0,100.0,100.0,1,5
0,0.015910163838875682,0.015910163838875682,0.015910163838875682,0.015910163838875682,68.0,68.0,68.0,68.0,0.011545132531359612,0.011545132531359612,0.011545132531359612,0.011545132531359612,0.00025312467704068764,0.00025312467704068764,0.00025312467704068764,0.00025312467704068764,2.6609895358877553,2.6609895358877553,2.6609895358877553,2.6609895358877553,89.0,89.0,89.0,89.0,1,6
0,0.011926442303331007,0.011926442303331007,0.011926442303331007,0.011926442303331007,71.0,71.0,71.0,71.0,0.008850405942913,0.008850405942913,0.008850405942913,0.008850405942913,0.00014220950922261277,0.00014220950922261277,0.00014220950922261277,0.00014220950922261277,2.0238091188380043,2.0238091188380043,2.0238091188380043,2.0238091188380043,107.0,107.0,107.0,107.0,1,3
0,0.009264549807470846,0.009264549807470846,0.009264549807470846,0.009264549807470846,85.0,85.0,85.0,85.0,0.006745692594255979,0.006745692594255979,0.006745692594255979,0.006745692594255979,8.582986793310902e-05,8.582986793310902e-05,8.582986793310902e-05,8.582986793310902e-05,1.5975522898301437,1.5975522898301437,1.5975522898301437,1.5975522898301437,128.0,128.0,128.0,128.0,1,1
0,0.02529446585827673,0.02529446585827673,0.02529446585827673,0.02529446585827673,70.0,70.0,70.0,70.0,0.018661768689704265,0.018661768689704265,0.018661768689704265,0.018661768689704265,0.000639683394855289,0.000639683394855289,0.000639683394855289,0.000639683394855289,4.529200796494177,4.529200796494177,4.529200796494177,4.529200796494177,103.0,103.0,103.0,103.0,1,2
0,0.01412520459753553,0.01412520459753553,0.01412520459753553,0.01412520459753553,74.0,74.0,74.0,74.0,0.009941775637273782,0.009941775637273782,0.009941775637273782,0.009941775637273782,0.00019951690662937838,0.00019951690662937838,0.00019951690662937838,0.00019951690662937838,2.2207404166407305,2.2207404166407305,2.2207404166407305,2.2207404166407305,98.0,98.0,98.0,98.0,1,6
0,0.02940388131739992,0.02940388131739992,0.02940388131739992,0.02940388131739992,85.0,85.0,85.0,85.0,0.02220373701834934,0.02220373701834934,0.02220373701834934,0.02220373701834934,0.0008644317443984721,0.0008644317443984721,0.0008644317443984721,0.0008644317443984721,5.317639865085097,5.317639865085097,5.317639865085097,5.317639865085097,107.0,107.0,107.0,107.0,1,5
0,0.013379608489097881,0.013379608489097881,0.013379608489097881,0.013379608489097881,69.0,69.0,69.0,69.0,0.009511393888924025,0.009511393888924025,0.009511393888924025,0.009511393888924025,0.00017897499842253734,0.00017897499842253734,0.00017897499842253734,0.00017897499842253734,1.9665001393064325,1.9665001393064325,1.9665001393064325,1.9665001393064325,99.0,99.0,99.0,99.0,1,4
0,0.008375029748602159,0.008375029748602159,0.008375029748602159,0.008375029748602159,64.0,64.0,64.0,64.0,0.006440579401345925,0.006440579401345925,0.006440579401345925,0.006440579401345925,7.011591002174706e-05,7.011591002174706e-05,7.011591002174706e-05,7.011591002174706e-05,1.3893729984305392,1.3893729984305392,1.3893729984305392,1.3893729984305392,116.0,116.0,116.0,116.0,1,3
0,0.021833380058233286,0.021833380058233286,0.021833380058233286,0.021833380058233286,74.0,74.0,74.0,74.0,0.017437748237102247,0.017437748237102247,0.017437748237102247,0.017437748237102247,0.0004766934163768935,0.0004766934163768935,0.0004766934163768935,0.0004766934163768935,3.8922212499076174,3.8922212499076174,3.8922212499076174,3.8922212499076174,101.0,101.0,101.0,101.0,1,2
0,0.009481152162033457,0.009481152162033457,0.009481152162033457,0.009481152162033457,77.0,77.0,77.0,77.0,0.007327675771458271,0.007327675771458271,0.007327675771458271,0.007327675771458271,8.988142395617044e-05,8.988142395617044e-05,8.988142395617044e-05,8.988142395617044e-05,1.5850876712422979,1.5850876712422979,1.5850876712422979,1.5850876712422979,115.0,115.0,115.0,115.0,1,1
0,0.006349625848059922,0.006349625848059922,0.006349625848059922,0.006349625848059922,77.0,77.0,77.0,77.0,0.005024976738757128,0.005024976738757128,0.005024976738757128,0.005024976738757128,4.028534178520495e-05,4.028534178520495e-05,4.028534178520495e-05,4.028534178520495e-05,1.0908461071517084,1.0908461071517084,1.0908461071517084,1.0908461071517084,110.0,110.0,110.0,110.0,1,4
0,0.029188879171918418,0.029188879171918418,0.029188879171918418,0.029188879171918418,88.0,88.0,88.0,88.0,0.022631527012704638,0.022631527012704638,0.022631527012704638,0.022631527012704638,0.0008519639970073112,0.0008519639970073112,0.0008519639970073112,0.0008519639970073112,5.711512606296939,5.711512606296939,5.711512606296939,5.711512606296939,107.0,107.0,107.0,107.0,1,5
0,0.013529243718487384,0.013529243718487384,0.013529243718487384,0.013529243718487384,64.0,64.0,64.0,64.0,0.01012655293899848,0.01012655293899848,0.01012655293899848,0.01012655293899848,0.00018303675506929192,0.00018303675506929192,0.00018303675506929192,0.00018303675506929192,2.2511022602114785,2.2511022602114785,2.2511022602114785,2.2511022602114785,92.0,92.0,92.0,92.0,1,3
0,0.013433144190744054,0.013433144190744054,0.013433144190744054,0.013433144190744054,64.0,64.0,64.0,64.0,0.009783588712762066,0.009783588712762066,0.009783588712762066,0.009783588712762066,0.00018044830634879314,0.00018044830634879314,0.00018044830634879314,0.00018044830634879314,2.183615479840867,2.183615479840867,2.183615479840867,2.183615479840867,107.0,107.0,107.0,107.0,1,6
0,0.02680344948133279,0.02680344948133279,0.02680344948133279,0.02680344948133279,80.0,80.0,80.0,80.0,0.02042777083151444,0.02042777083151444,0.02042777083151444,0.02042777083151444,0.0007184143981185448,0.0007184143981185448,0.0007184143981185448,0.0007184143981185448,4.938549550957227,4.938549550957227,4.938549550957227,4.938549550957227,102.0,102.0,102.0,102.0,1,2
0,0.027508207509313033,0.027508207509313033,0.027508207509313033,0.027508207509313033,74.0,74.0,74.0,74.0,0.02101523609083313,0.02101523609083313,0.02101523609083313,0.02101523609083313,0.0007565910652442007,0.0007565910652442007,0.0007565910652442007,0.0007565910652442007,4.774975602633814,4.774975602633814,4.774975602633814,4.774975602633814,99.0,99.0,99.0,99.0,1,5
0,0.01100608209479414,0.01100608209479414,0.01100608209479414,0.01100608209479414,64.0,64.0,64.0,64.0,0.008201956947124764,0.008201956947124764,0.008201956947124764,0.008201956947124764,0.00012113345788106178,0.00012113345788106178,0.00012113345788106178,0.00012113345788106178,1.6756872943983099,1.6756872943983099,1.6756872943983099,1.6756872943983099,105.0,105.0,105.0,105.0,1,6
0,0.011280339259398257,0.011280339259398257,0.011280339259398257,0.011280339259398257,83.0,83.0,83.0,83.0,0.008383594656606748,0.008383594656606748,0.008383594656606748,0.008383594656606748,0.00012724578401544632,0.00012724578401544632,0.00012724578401544632,0.00012724578401544632,1.903836852267816,1.903836852267816,1.903836852267816,1.903836852267816,106.0,106.0,106.0,106.0,1,4
0,0.008254597314645815,0.008254597314645815,0.008254597314645815,0.008254597314645815,80.0,80.0,80.0,80.0,0.006523964983597745,0.006523964983597745,0.006523964983597745,0.006523964983597745,6.813824578674311e-05,6.813824578674311e-05,6.813824578674311e-05,6.813824578674311e-05,1.5225142338167892,1.5225142338167892,1.5225142338167892,1.5225142338167892,109.0,109.0,109.0,109.0,1,1
0,0.010217785202529655,0.010217785202529655,0.010217785202529655,0.010217785202529655,62.0,62.0,62.0,62.0,0.007636561285974408,0.007636561285974408,0.007636561285974408,0.007636561285974408,0.00010437679850321731,0.00010437679850321731,0.00010437679850321731,0.00010437679850321731,1.4838428735164437,1.4838428735164437,1.4838428735164437,1.4838428735164437,93.0,93.0,93.0,93.0,1,3
0,0.012751341079535178,0.012751341079535178,0.012751341079535178,0.012751341079535178,68.0,68.0,68.0,68.0,0.00907938783140106,0.00907938783140106,0.00907938783140106,0.00907938783140106,0.00016258821974377168,0.00016258821974377168,0.00016258821974377168,0.00016258821974377168,2.0155917866535638,2.0155917866535638,2.0155917866535638,2.0155917866535638,96.0,96.0,96.0,96.0,1,4
0,0.01928133879246106,0.01928133879246106,0.01928133879246106,0.01928133879246106,76.0,76.0,76.0,76.0,0.014360717632353337,0.014360717632353337,0.014360717632353337,0.014360717632353337,0.0003717700240413589,0.0003717700240413589,0.0003717700240413589,0.0003717700240413589,3.395300903624251,3.395300903624251,3.395300903624251,3.395300903624251,99.0,99.0,99.0,99.0,1,2
0,0.011322034811521556,0.011322034811521556,0.011322034811521556,0.011322034811521556,54.0,54.0,54.0,54.0,0.008361916544597541,0.008361916544597541,0.008361916544597541,0.008361916544597541,0.00012818564451842475,0.00012818564451842475,0.00012818564451842475,0.00012818564451842475,1.725459109495603,1.725459109495603,1.725459109495603,1.725459109495603,97.0,97.0,97.0,97.0,1,3
0,0.009772095925081022,0.009772095925081022,0.009772095925081022,0.009772095925081022,66.0,66.0,66.0,66.0,0.007683682410820647,0.007683682410820647,0.007683682410820647,0.007683682410820647,9.549005167350019e-05,9.549005167350019e-05,9.549005167350019e-05,9.549005167350019e-05,1.5749547333508824,1.5749547333508824,1.5749547333508824,1.5749547333508824,103.0,103.0,103.0,103.0,1,1
0,0.04224131158721374,0.04224131158721374,0.04224131158721374,0.04224131158721374,68.0,68.0,68.0,68.0,0.031155071848344845,0.031155071848344845,0.031155071848344845,0.031155071848344845,0.0017836674102933534,0.0017836674102933534,0.0017836674102933534,0.0017836674102933534,6.729875987483364,6.729875987483364,6.729875987483364,6.729875987483364,92.0,92.0,92.0,92.0,1,5
0,0.015743904692750284,0.015743904692750284,0.015743904692750284,0.015743904692750284,60.0,60.0,60.0,60.0,0.011192788848787528,0.011192788848787528,0.011192788848787528,0.011192788848787528,0.000247859135451672,0.000247859135451672,0.000247859135451672,0.000247859135451672,2.3922922059622245,2.3922922059622245,2.3922922059622245,2.3922922059622245,99.0,99.0,99.0,99.0,1,6
0,0.031213235640334493,0.031213235640334493,0.031213235640334493,0.031213235640334493,86.0,86.0,86.0,86.0,0.023700114249747665,0.023700114249747665,0.023700114249747665,0.023700114249747665,0.0009741683528635986,0.0009741683528635986,0.0009741683528635986,0.0009741683528635986,6.167598224753691,6.167598224753691,6.167598224753691,6.167598224753691,110.0,110.0,110.0,110.0,1,5
0,0.027783451797275142,0.027783451797275142,0.027783451797275142,0.027783451797275142,81.0,81.0,81.0,81.0,0.020664853725167687,0.020664853725167687,0.020664853725167687,0.020664853725167687,0.0007719192469521521,0.0007719192469521521,0.0007719192469521521,0.0007719192469521521,5.026806348250232,5.026806348250232,5.026806348250232,5.026806348250232,111.0,111.0,111.0,111.0,1,2
0,0.015456045188507508,0.015456045188507508,0.015456045188507508,0.015456045188507508,63.0,63.0,63.0,63.0,0.01225364471277266,0.01225364471277266,0.01225364471277266,0.01225364471277266,0.00023880292656166578,0.00023880292656166578,0.00023880292656166578,0.00023880292656166578,2.2377190005112757,2.2377190005112757,2.2377190005112757,2.2377190005112757,100.0,100.0,100.0,100.0,1,3
0,0.009745816744717677,0.009745816744717677,0.009745816744717677,0.009745816744717677,43.0,43.0,43.0,43.0,0.007882194874966709,0.007882194874966709,0.007882194874966709,0.007882194874966709,9.498052620395698e-05,9.498052620395698e-05,9.498052620395698e-05,9.498052620395698e-05,1.1860608943805169,1.1860608943805169,1.1860608943805169,1.1860608943805169,94.0,94.0,94.0,94.0,1,4
0,0.009446377030701298,0.009446377030701298,0.009446377030701298,0.009446377030701298,60.0,60.0,60.0,60.0,0.007581594767783857,0.007581594767783857,0.007581594767783857,0.007581594767783857,8.921752595539879e-05,8.921752595539879e-05,8.921752595539879e-05,8.921752595539879e-05,1.4144438468232368,1.4144438468232368,1.4144438468232368,1.4144438468232368,108.0,108.0,108.0,108.0,1,1
0,0.017570492678732147,0.017570492678732147,0.017570492678732147,0.017570492678732147,73.0,73.0,73.0,73.0,0.013100662135345166,0.013100662135345166,0.013100662135345166,0.013100662135345166,0.0003087072092772099,0.0003087072092772099,0.0003087072092772099,0.0003087072092772099,2.69345691295544,2.69345691295544,2.69345691295544,2.69345691295544,105.0,105.0,105.0,105.0,1,6
0,0.01937650821565082,0.01937650821565082,0.01937650821565082,0.01937650821565082,54.0,54.0,54.0,54.0,0.01529561782655723,0.01529561782655723,0.01529561782655723,0.01529561782655723,0.000375446943717104,0.000375446943717104,0.000375446943717104,0.000375446943717104,2.820018022047429,2.820018022047429,2.820018022047429,2.820018022047429,94.0,94.0,94.0,94.0,1,3
0,0.013592921128585362,0.013592921128585362,0.013592921128585362,0.013592921128585362,68.0,68.0,68.0,68.0,0.010766121634862942,0.010766121634862942,0.010766121634862942,0.010766121634862942,0.00018473181728387845,0.00018473181728387845,0.00018473181728387845,0.00018473181728387845,2.3358600084407093,2.3358600084407093,2.3358600084407093,2.3358600084407093,101.0,101.0,101.0,101.0,1,4
0,0.013803732223527331,0.013803732223527331,0.013803732223527331,0.013803732223527331,68.0,68.0,68.0,68.0,0.010149371896960597,0.010149371896960597,0.010149371896960597,0.010149371896960597,0.00019053903475653962,0.00019053903475653962,0.00019053903475653962,0.00019053903475653962,2.2140013676128327,2.2140013676128327,2.2140013676128327,2.2140013676128327,124.0,124.0,124.0,124.0,1,1
0,0.02586401258073276,0.02586401258073276,0.02586401258073276,0.02586401258073276,69.0,69.0,69.0,69.0,0.020371767160180715,0.020371767160180715,0.020371767160180715,0.020371767160180715,0.000668937206608743,0.000668937206608743,0.000668937206608743,0.000668937206608743,4.913222310913296,4.913222310913296,4.913222310913296,4.913222310913296,97.0,97.0,97.0,97.0,1,2
0,0.03206440288203254,0.03206440288203254,0.03206440288203254,0.03206440288203254,80.0,80.0,80.0,80.0,0.023940410762494535,0.023940410762494535,0.023940410762494535,0.023940410762494535,0.0010281010457262986,0.0010281010457262986,0.0010281010457262986,0.0010281010457262986,6.265982505372255,6.265982505372255,6.265982505372255,6.265982505372255,106.0,106.0,106.0,106.0,1,5
0,0.013249113702208718,0.013249113702208718,0.013249113702208718,0.013249113702208718,54.0,54.0,54.0,54.0,0.01040375902203205,0.01040375902203205,0.01040375902203205,0.01040375902203205,0.00017552920322719203,0.00017552920322719203,0.00017552920322719203,0.00017552920322719203,2.0106016262336786,2.0106016262336786,2.0106016262336786,2.0106016262336786,110.0,110.0,110.0,110.0,1,6
0,0.012739235147080752,0.012739235147080752,0.012739235147080752,0.012739235147080752,56.0,56.0,56.0,56.0,0.009459240124944548,0.009459240124944548,0.009459240124944548,0.009459240124944548,0.00016228135904583745,0.00016228135904583745,0.00016228135904583745,0.00016228135904583745,2.02578810898243,2.02578810898243,2.02578810898243,2.02578810898243,106.0,106.0,106.0,106.0,1,6
0,0.01161254560757388,0.01161254560757388,0.01161254560757388,0.01161254560757388,70.0,70.0,70.0,70.0,0.009201725301459227,0.009201725301459227,0.009201725301459227,0.009201725301459227,0.00013482872411802032,0.00013482872411802032,0.00013482872411802032,0.00013482872411802032,2.116858139834517,2.116858139834517,2.116858139834517,2.116858139834517,119.0,119.0,119.0,119.0,1,1
0,0.011625313658273328,0.011625313658273328,0.011625313658273328,0.011625313658273328,62.0,62.0,62.0,62.0,0.009160279097013753,0.009160279097013753,0.009160279097013753,0.009160279097013753,0.00013513964441780096,0.00013513964441780096,0.00013513964441780096,0.00013513964441780096,1.6669798779971945,1.6669798779971945,1.6669798779971945,1.6669798779971945,98.0,98.0,98.0,98.0,1,3
0,0.026336940907089747,0.026336940907089747,0.026336940907089747,0.026336940907089747,79.0,79.0,79.0,79.0,0.020159139278159426,0.020159139278159426,0.020159139278159426,0.020159139278159426,0.0006936204704251195,0.0006936204704251195,0.0006936204704251195,0.0006936204704251195,4.707684287809569,4.707684287809569,4.707684287809569,4.707684287809569,102.0,102.0,102.0,102.0,1,2
0,0.011916981534519163,0.011916981534519163,0.011916981534519163,0.011916981534519163,57.0,57.0,57.0,57.0,0.008852924991818757,0.008852924991818757,0.008852924991818757,0.008852924991818757,0.0001420128022117284,0.0001420128022117284,0.0001420128022117284,0.0001420128022117284,1.7418422532602542,1.7418422532602542,1.7418422532602542,1.7418422532602542,105.0,105.0,105.0,105.0,1,4
0,0.030070292569899244,0.030070292569899244,0.030070292569899244,0.030070292569899244,66.0,66.0,66.0,66.0,0.02315740689302257,0.02315740689302257,0.02315740689302257,0.02315740689302257,0.0009041170513914962,0.0009041170513914962,0.0009041170513914962,0.0009041170513914962,4.827835916613217,4.827835916613217,4.827835916613217,4.827835916613217,94.0,94.0,94.0,94.0,1,5
0,0.01450114591881815,0.01450114591881815,0.01450114591881815,0.01450114591881815,65.0,65.0,65.0,65.0,0.011090338562675025,0.011090338562675025,0.011090338562675025,0.011090338562675025,0.00021028232106245982,0.00021028232106245982,0.00021028232106245982,0.00021028232106245982,2.199555540505132,2.199555540505132,2.199555540505132,2.199555540505132,102.0,102.0,102.0,102.0,1,3
0,0.022566517458251154,0.022566517458251154,0.022566517458251154,0.022566517458251154,72.0,72.0,72.0,72.0,0.016439576461200603,0.016439576461200603,0.016439576461200603,0.016439576461200603,0.0005091329101308321,0.0005091329101308321,0.0005091329101308321,0.0005091329101308321,3.923427725909382,3.923427725909382,3.923427725909382,3.923427725909382,107.0,107.0,107.0,107.0,1,2
0,0.032284349492134275,0.032284349492134275,0.032284349492134275,0.032284349492134275,88.0,88.0,88.0,88.0,0.024230569722972658,0.024230569722972658,0.024230569722972658,0.024230569722972658,0.0010420638489017195,0.0010420638489017195,0.0010420638489017195,0.0010420638489017195,5.968990516074102,5.968990516074102,5.968990516074102,5.968990516074102,101.0,101.0,101.0,101.0,1,5
0,0.011306014829794821,0.011306014829794821,0.011306014829794821,0.011306014829794821,50.0,50.0,50.0,50.0,0.008782978873056941,0.008782978873056941,0.008782978873056941,0.008782978873056941,0.00012781560909482656,0.00012781560909482656,0.00012781560909482656,0.00012781560909482656,1.6241632654080558,1.6241632654080558,1.6241632654080558,1.6241632654080558,97.0,97.0,97.0,97.0,1,4
0,0.014727804140722686,0.014727804140722686,0.014727804140722686,0.014727804140722686,59.0,59.0,59.0,59.0,0.010952092539305253,0.010952092539305253,0.010952092539305253,0.010952092539305253,0.00021687023934107593,0.00021687023934107593,0.00021687023934107593,0.00021687023934107593,2.2384352393682447,2.2384352393682447,2.2384352393682447,2.2384352393682447,111.0,111.0,111.0,111.0,1,6
0,0.01132631207814887,0.01132631207814887,0.01132631207814887,0.01132631207814887,70.0,70.0,70.0,70.0,0.008774899637689,0.008774899637689,0.008774899637689,0.008774899637689,0.00012827962744064842,0.00012827962744064842,0.00012827962744064842,0.00012827962744064842,1.8791941923462876,1.8791941923462876,1.8791941923462876,1.8791941923462876,114.0,114.0,114.0,114.0,1,1
0,0.032752616214311685,0.032752616214311685,0.032752616214311685,0.032752616214311685,80.0,80.0,80.0,80.0,0.02310559065450576,0.02310559065450576,0.02310559065450576,0.02310559065450576,0.0010727252462999122,0.0010727252462999122,0.0010727252462999122,0.0010727252462999122,5.804826804793201,5.804826804793201,5.804826804793201,5.804826804793201,111.0,111.0,111.0,111.0,1,5
0,0.011460874647969084,0.011460874647969084,0.011460874647969084,0.011460874647969084,70.0,70.0,70.0,70.0,0.009273580218494351,0.009273580218494351,0.009273580218494351,0.009273580218494351,0.00013135027541749493,0.00013135027541749493,0.00013135027541749493,0.00013135027541749493,1.9717100790001574,1.9717100790001574,1.9717100790001574,1.9717100790001574,113.0,113.0,113.0,113.0,1,1
0,0.013233606472318261,0.013233606472318261,0.013233606472318261,0.013233606472318261,66.0,66.0,66.0,66.0,0.009793859772463588,0.009793859772463588,0.009793859772463588,0.009793859772463588,0.00017512634029590864,0.00017512634029590864,0.00017512634029590864,0.00017512634029590864,1.9481651073434723,1.9481651073434723,1.9481651073434723,1.9481651073434723,101.0,101.0,101.0,101.0,1,6
0,0.020017403078118293,0.020017403078118293,0.020017403078118293,0.020017403078118293,71.0,71.0,71.0,71.0,0.015217318690542637,0.015217318690542637,0.015217318690542637,0.015217318690542637,0.0004006749589394248,0.0004006749589394248,0.0004006749589394248,0.0004006749589394248,3.4937666902963764,3.4937666902963764,3.4937666902963764,3.4937666902963764,113.0,113.0,113.0,113.0,1,2
0,0.01354931662493205,0.01354931662493205,0.01354931662493205,0.01354931662493205,46.0,46.0,46.0,46.0,0.010888468647418681,0.010888468647418681,0.010888468647418681,0.010888468647418681,0.00018353491550483902,0.00018353491550483902,0.00018353491550483902,0.00018353491550483902,1.796914388484434,1.796914388484434,1.796914388484434,1.796914388484434,96.0,96.0,96.0,96.0,1,3
0,0.011885529450991,0.011885529450991,0.011885529450991,0.011885529450991,61.0,61.0,61.0,61.0,0.009262114645752086,0.009262114645752086,0.009262114645752086,0.009262114645752086,0.0001412545948265739,0.0001412545948265739,0.0001412545948265739,0.0001412545948265739,1.7184019889912312,1.7184019889912312,1.7184019889912312,1.7184019889912312,97.0,97.0,97.0,97.0,1,4
0,0.014695680871791354,0.014695680871791354,0.014695680871791354,0.014695680871791354,54.0,54.0,54.0,54.0,0.011086264312639477,0.011086264312639477,0.011086264312639477,0.011086264312639477,0.0002159590744054217,0.0002159590744054217,0.0002159590744054217,0.0002159590744054217,1.9013135192215573,1.9013135192215573,1.9013135192215573,1.9013135192215573,94.0,94.0,94.0,94.0,1,3
0,0.012531890357433342,0.012531890357433342,0.012531890357433342,0.012531890357433342,54.0,54.0,54.0,54.0,0.009658851214578462,0.009658851214578462,0.009658851214578462,0.009658851214578462,0.00015704827439828466,0.00015704827439828466,0.00015704827439828466,0.00015704827439828466,1.8652177521041895,1.8652177521041895,1.8652177521041895,1.8652177521041895,102.0,102.0,102.0,102.0,1,6
0,0.010883962859858638,0.010883962859858638,0.010883962859858638,0.010883962859858638,66.0,66.0,66.0,66.0,0.008534373109874404,0.008534373109874404,0.008534373109874404,0.008534373109874404,0.00011839860434212987,0.00011839860434212987,0.00011839860434212987,0.00011839860434212987,1.6208831127884546,1.6208831127884546,1.6208831127884546,1.6208831127884546,101.0,101.0,101.0,101.0,1,4
0,0.02858851142697784,0.02858851142697784,0.02858851142697784,0.02858851142697784,75.0,75.0,75.0,75.0,0.021020588370787727,0.021020588370787727,0.021020588370787727,0.021020588370787727,0.000816721595410898,0.000816721595410898,0.000816721595410898,0.000816721595410898,4.91780468690985,4.91780468690985,4.91780468690985,4.91780468690985,101.0,101.0,101.0,101.0,1,5
0,0.025766850951922517,0.025766850951922517,0.025766850951922517,0.025766850951922517,76.0,76.0,76.0,76.0,0.01993407304522711,0.01993407304522711,0.01993407304522711,0.01993407304522711,0.0006639305918332533,0.0006639305918332533,0.0006639305918332533,0.0006639305918332533,4.776639881598154,4.776639881598154,4.776639881598154,4.776639881598154,110.0,110.0,110.0,110.0,1,2
0,0.01061908997938493,0.01061908997938493,0.01061908997938493,0.01061908997938493,54.0,54.0,54.0,54.0,0.00842496855286184,0.00842496855286184,0.00842496855286184,0.00842496855286184,0.00011276482114650082,0.00011276482114650082,0.00011276482114650082,0.00011276482114650082,1.5538788426094883,1.5538788426094883,1.5538788426094883,1.5538788426094883,103.0,103.0,103.0,103.0,1,1
0,0.005328849348344984,0.005328849348344984,0.005328849348344984,0.005328849348344984,73.0,73.0,73.0,73.0,0.004120241811576875,0.004120241811576875,0.004120241811576875,0.004120241811576875,2.8376985717742145e-05,2.8376985717742145e-05,2.8376985717742145e-05,2.8376985717742145e-05,0.9123629228054018,0.9123629228054018,0.9123629228054018,0.9123629228054018,103.0,103.0,103.0,103.0,1,1
0,0.004759106179297317,0.004759106179297317,0.004759106179297317,0.004759106179297317,65.0,65.0,65.0,65.0,0.0035756034677695125,0.0035756034677695125,0.0035756034677695125,0.0035756034677695125,2.2635573019106404e-05,2.2635573019106404e-05,2.2635573019106404e-05,2.2635573019106404e-05,0.7122658168764948,0.7122658168764948,0.7122658168764948,0.7122658168764948,102.0,102.0,102.0,102.0,1,3
0,0.014208138930769856,0.014208138930769856,0.014208138930769856,0.014208138930769856,66.0,66.0,66.0,66.0,0.009576753930953176,0.009576753930953176,0.009576753930953176,0.009576753930953176,0.00020187058759781675,0.00020187058759781675,0.00020187058759781675,0.00020187058759781675,2.0640212771804274,2.0640212771804274,2.0640212771804274,2.0640212771804274,89.0,89.0,89.0,89.0,1,4
0,0.018552599185531465,0.018552599185531465,0.018552599185531465,0.018552599185531465,63.0,63.0,63.0,63.0,0.012522902502446288,0.012522902502446288,0.012522902502446288,0.012522902502446288,0.0003441949595774801,0.0003441949595774801,0.0003441949595774801,0.0003441949595774801,2.938814283529704,2.938814283529704,2.938814283529704,2.938814283529704,101.0,101.0,101.0,101.0,1,2
0,0.007052317103653039,0.007052317103653039,0.007052317103653039,0.007052317103653039,60.0,60.0,60.0,60.0,0.003900258444279111,0.003900258444279111,0.003900258444279111,0.003900258444279111,4.973213425853434e-05,4.973213425853434e-05,4.973213425853434e-05,4.973213425853434e-05,0.7771269547718305,0.7771269547718305,0.7771269547718305,0.7771269547718305,107.0,107.0,107.0,107.0,1,6
0,0.016893218581890624,0.016893218581890624,0.016893218581890624,0.016893218581890624,74.0,74.0,74.0,74.0,0.011416023353647225,0.011416023353647225,0.011416023353647225,0.011416023353647225,0.0002853808203985152,0.0002853808203985152,0.0002853808203985152,0.0002853808203985152,2.604049387962699,2.604049387962699,2.604049387962699,2.604049387962699,96.0,96.0,96.0,96.0,1,5
0,0.008469550433779501,0.008469550433779501,0.008469550433779501,0.008469550433779501,65.0,65.0,65.0,65.0,0.005100588325567776,0.005100588325567776,0.005100588325567776,0.005100588325567776,7.173007987280033e-05,7.173007987280033e-05,7.173007987280033e-05,7.173007987280033e-05,1.1161835861680733,1.1161835861680733,1.1161835861680733,1.1161835861680733,99.0,99.0,99.0,99.0,1,6
0,0.0035376022632344064,0.0035376022632344064,0.0035376022632344064,0.0035376022632344064,74.0,74.0,74.0,74.0,0.002395365465242416,0.002395365465242416,0.002395365465242416,0.002395365465242416,1.25112099158807e-05,1.25112099158807e-05,1.25112099158807e-05,1.25112099158807e-05,0.5601200136448783,0.5601200136448783,0.5601200136448783,0.5601200136448783,115.0,115.0,115.0,115.0,1,1
0,0.002401489492279969,0.002401489492279969,0.002401489492279969,0.002401489492279969,70.0,70.0,70.0,70.0,0.0016611509562793362,0.0016611509562793362,0.0016611509562793362,0.0016611509562793362,5.749652280971384e-06,5.749652280971384e-06,5.749652280971384e-06,5.749652280971384e-06,0.3543658513918725,0.3543658513918725,0.3543658513918725,0.3543658513918725,107.0,107.0,107.0,107.0,1,3
0,0.01969816038206868,0.01969816038206868,0.01969816038206868,0.01969816038206868,84.0,84.0,84.0,84.0,0.0133534120549247,0.0133534120549247,0.0133534120549247,0.0133534120549247,0.00038801576235609694,0.00038801576235609694,0.00038801576235609694,0.00038801576235609694,3.1094013889793746,3.1094013889793746,3.1094013889793746,3.1094013889793746,102.0,102.0,102.0,102.0,1,2
0,0.0105398546525016,0.0105398546525016,0.0105398546525016,0.0105398546525016,70.0,70.0,70.0,70.0,0.006617465009056855,0.006617465009056855,0.006617465009056855,0.006617465009056855,0.00011108569193264277,0.00011108569193264277,0.00011108569193264277,0.00011108569193264277,1.449702948966876,1.449702948966876,1.449702948966876,1.449702948966876,96.0,96.0,96.0,96.0,1,5
0,0.021269244144898357,0.021269244144898357,0.021269244144898357,0.021269244144898357,65.0,65.0,65.0,65.0,0.01561169808435011,0.01561169808435011,0.01561169808435011,0.01561169808435011,0.00045235354674909284,0.00045235354674909284,0.00045235354674909284,0.00045235354674909284,3.2778379371381394,3.2778379371381394,3.2778379371381394,3.2778379371381394,90.0,90.0,90.0,90.0,1,4
0,0.011809082945230705,0.011809082945230705,0.011809082945230705,0.011809082945230705,69.0,69.0,69.0,69.0,0.007909940708927773,0.007909940708927773,0.007909940708927773,0.007909940708927773,0.00013943864478098395,0.00013943864478098395,0.00013943864478098395,0.00013943864478098395,1.7666585853322458,1.7666585853322458,1.7666585853322458,1.7666585853322458,98.0,98.0,98.0,98.0,1,6
0,0.00601223835550927,0.00601223835550927,0.00601223835550927,0.00601223835550927,75.0,75.0,75.0,75.0,0.004316585629324975,0.004316585629324975,0.004316585629324975,0.004316585629324975,3.614672777192603e-05,3.614672777192603e-05,3.614672777192603e-05,3.614672777192603e-05,1.0073780636604375,1.0073780636604375,1.0073780636604375,1.0073780636604375,106.0,106.0,106.0,106.0,1,1
0,0.005114516898025193,0.005114516898025193,0.005114516898025193,0.005114516898025193,62.0,62.0,62.0,62.0,0.003608854773042901,0.003608854773042901,0.003608854773042901,0.003608854773042901,2.612596394063344e-05,2.612596394063344e-05,2.612596394063344e-05,2.612596394063344e-05,0.7229229515326658,0.7229229515326658,0.7229229515326658,0.7229229515326658,109.0,109.0,109.0,109.0,1,3
0,0.013349436008717587,0.013349436008717587,0.013349436008717587,0.013349436008717587,83.0,83.0,83.0,83.0,0.009038065245759517,0.009038065245759517,0.009038065245759517,0.009038065245759517,0.0001782015613276671,0.0001782015613276671,0.0001782015613276671,0.0001782015613276671,1.9879404468602053,1.9879404468602053,1.9879404468602053,1.9879404468602053,100.0,100.0,100.0,100.0,1,5
0,0.019116683714408767,0.019116683714408767,0.019116683714408767,0.019116683714408767,60.0,60.0,60.0,60.0,0.013856373995769231,0.013856373995769231,0.013856373995769231,0.013856373995769231,0.00036544545068320646,0.00036544545068320646,0.00036544545068320646,0.00036544545068320646,2.8307035761260484,2.8307035761260484,2.8307035761260484,2.8307035761260484,86.0,86.0,86.0,86.0,1,4
0,0.010842003375153118,0.010842003375153118,0.010842003375153118,0.010842003375153118,74.0,74.0,74.0,74.0,0.006618380331915106,0.006618380331915106,0.006618380331915106,0.006618380331915106,0.0001175245961173939,0.0001175245961173939,0.0001175245961173939,0.0001175245961173939,1.6746048424955529,1.6746048424955529,1.6746048424955529,1.6746048424955529,99.0,99.0,99.0,99.0,1,2
0,0.009772389331734011,0.009772389331734011,0.009772389331734011,0.009772389331734011,83.0,83.0,83.0,83.0,0.006488586785453027,0.006488586785453027,0.006488586785453027,0.006488586785453027,9.548488415993182e-05,9.548488415993182e-05,9.548488415993182e-05,9.548488415993182e-05,1.8243108396917682,1.8243108396917682,1.8243108396917682,1.8243108396917682,114.0,114.0,114.0,114.0,1,2
0,0.006461723922509817,0.006461723922509817,0.006461723922509817,0.006461723922509817,70.0,70.0,70.0,70.0,0.004480706148174342,0.004480706148174342,0.004480706148174342,0.004480706148174342,4.1753006452527536e-05,4.1753006452527536e-05,4.1753006452527536e-05,4.1753006452527536e-05,0.9117609707669458,0.9117609707669458,0.9117609707669458,0.9117609707669458,89.0,89.0,89.0,89.0,1,3
0,0.012698739078405042,0.012698739078405042,0.012698739078405042,0.012698739078405042,84.0,84.0,84.0,84.0,0.007912912914401153,0.007912912914401153,0.007912912914401153,0.007912912914401153,0.00016121209764756678,0.00016121209764756678,0.00016121209764756678,0.00016121209764756678,1.855289626346376,1.855289626346376,1.855289626346376,1.855289626346376,109.0,109.0,109.0,109.0,1,5
0,0.010832709976942459,0.010832709976942459,0.010832709976942459,0.010832709976942459,80.0,80.0,80.0,80.0,0.005897989432514484,0.005897989432514484,0.005897989432514484,0.005897989432514484,0.00011734760402626068,0.00011734760402626068,0.00011734760402626068,0.00011734760402626068,1.4914370092861853,1.4914370092861853,1.4914370092861853,1.4914370092861853,120.0,120.0,120.0,120.0,1,6
0,0.004791994996486551,0.004791994996486551,0.004791994996486551,0.004791994996486551,75.0,75.0,75.0,75.0,0.0037070132874992235,0.0037070132874992235,0.0037070132874992235,0.0037070132874992235,2.294022256594944e-05,2.294022256594944e-05,2.294022256594944e-05,2.294022256594944e-05,0.804220828196648,0.804220828196648,0.804220828196648,0.804220828196648,104.0,104.0,104.0,104.0,1,1
0,0.014859919309112922,0.014859919309112922,0.014859919309112922,0.014859919309112922,69.0,69.0,69.0,69.0,0.010273810536798114,0.010273810536798114,0.010273810536798114,0.010273810536798114,0.00022080171286950604,0.00022080171286950604,0.00022080171286950604,0.00022080171286950604,2.120377292596156,2.120377292596156,2.120377292596156,2.120377292596156,90.0,90.0,90.0,90.0,1,4
0,0.011721997638742668,0.011721997638742668,0.011721997638742668,0.011721997638742668,83.0,83.0,83.0,83.0,0.008543661190332787,0.008543661190332787,0.008543661190332787,0.008543661190332787,0.00013739732274862192,0.00013739732274862192,0.00013739732274862192,0.00013739732274862192,2.1570848701893173,2.1570848701893173,2.1570848701893173,2.1570848701893173,111.0,111.0,111.0,111.0,1,6
0,0.013427940998527368,0.013427940998527368,0.013427940998527368,0.013427940998527368,78.0,78.0,78.0,78.0,0.008842395923801451,0.008842395923801451,0.008842395923801451,0.008842395923801451,0.0001803052760020956,0.0001803052760020956,0.0001803052760020956,0.0001803052760020956,2.134589925569878,2.134589925569878,2.134589925569878,2.134589925569878,103.0,103.0,103.0,103.0,1,2
0,0.02297020216699752,0.02297020216699752,0.02297020216699752,0.02297020216699752,75.0,75.0,75.0,75.0,0.015730185372726708,0.015730185372726708,0.015730185372726708,0.015730185372726708,0.0005276002465515009,0.0005276002465515009,0.0005276002465515009,0.0005276002465515009,3.8957915826748835,3.8957915826748835,3.8957915826748835,3.8957915826748835,100.0,100.0,100.0,100.0,1,5
0,0.0043283637133904925,0.0043283637133904925,0.0043283637133904925,0.0043283637133904925,77.0,77.0,77.0,77.0,0.003225658721845576,0.003225658721845576,0.003225658721845576,0.003225658721845576,1.8722208243229255e-05,1.8722208243229255e-05,1.8722208243229255e-05,1.8722208243229255e-05,0.7705590754921414,0.7705590754921414,0.7705590754921414,0.7705590754921414,113.0,113.0,113.0,113.0,1,1
0,0.009135654836307188,0.009135654836307188,0.009135654836307188,0.009135654836307188,61.0,61.0,61.0,61.0,0.006184428634188663,0.006184428634188663,0.006184428634188663,0.006184428634188663,8.345880924966747e-05,8.345880924966747e-05,8.345880924966747e-05,8.345880924966747e-05,1.2838553971369149,1.2838553971369149,1.2838553971369149,1.2838553971369149,86.0,86.0,86.0,86.0,1,4
0,0.0054455122289678495,0.0054455122289678495,0.0054455122289678495,0.0054455122289678495,63.0,63.0,63.0,63.0,0.0036834628269918684,0.0036834628269918684,0.0036834628269918684,0.0036834628269918684,2.9653603328269043e-05,2.9653603328269043e-05,2.9653603328269043e-05,2.9653603328269043e-05,0.7585281327520189,0.7585281327520189,0.7585281327520189,0.7585281327520189,114.0,114.0,114.0,114.0,1,3
0,0.004568994435166411,0.004568994435166411,0.004568994435166411,0.004568994435166411,62.0,62.0,62.0,62.0,0.003456723280409514,0.003456723280409514,0.003456723280409514,0.003456723280409514,2.0873107272092493e-05,2.0873107272092493e-05,2.0873107272092493e-05,2.0873107272092493e-05,0.7299901318122554,0.7299901318122554,0.7299901318122554,0.7299901318122554,105.0,105.0,105.0,105.0,1,4
0,0.002766235630907766,0.002766235630907766,0.002766235630907766,0.002766235630907766,76.0,76.0,76.0,76.0,0.0021014047563079263,0.0021014047563079263,0.0021014047563079263,0.0021014047563079263,7.650073891589106e-06,7.650073891589106e-06,7.650073891589106e-06,7.650073891589106e-06,0.4931335782994127,0.4931335782994127,0.4931335782994127,0.4931335782994127,113.0,113.0,113.0,113.0,1,3
0,0.011253659896728416,0.011253659896728416,0.011253659896728416,0.011253659896728416,82.0,82.0,82.0,82.0,0.008323138418734537,0.008323138418734537,0.008323138418734537,0.008323138418734537,0.00012664423859738979,0.00012664423859738979,0.00012664423859738979,0.00012664423859738979,1.897241779325195,1.897241779325195,1.897241779325195,1.897241779325195,108.0,108.0,108.0,108.0,1,5
0,0.005602750411113951,0.005602750411113951,0.005602750411113951,0.005602750411113951,79.0,79.0,79.0,79.0,0.004241262259539257,0.004241262259539257,0.004241262259539257,0.004241262259539257,3.136189597303408e-05,3.136189597303408e-05,3.136189597303408e-05,3.136189597303408e-05,0.9244977230234156,0.9244977230234156,0.9244977230234156,0.9244977230234156,109.0,109.0,109.0,109.0,1,1
0,0.011215924275439606,0.011215924275439606,0.011215924275439606,0.011215924275439606,79.0,79.0,79.0,79.0,0.00777359409837991,0.00777359409837991,0.00777359409837991,0.00777359409837991,0.0001257944021905844,0.0001257944021905844,0.0001257944021905844,0.0001257944021905844,1.9193113162339734,1.9193113162339734,1.9193113162339734,1.9193113162339734,113.0,113.0,113.0,113.0,1,2
0,0.013633283473138854,0.013633283473138854,0.013633283473138854,0.013633283473138854,67.0,67.0,67.0,67.0,0.007894915099699125,0.007894915099699125,0.007894915099699125,0.007894915099699125,0.00018585024359299096,0.00018585024359299096,0.00018585024359299096,0.00018585024359299096,1.6950227386778003,1.6950227386778003,1.6950227386778003,1.6950227386778003,97.0,97.0,97.0,97.0,1,6
0,0.010976942108783107,0.010976942108783107,0.010976942108783107,0.010976942108783107,67.0,67.0,67.0,67.0,0.008183682872177174,0.008183682872177174,0.008183682872177174,0.008183682872177174,0.00012046990132066681,0.00012046990132066681,0.00012046990132066681,0.00012046990132066681,1.5117016157158158,1.5117016157158158,1.5117016157158158,1.5117016157158158,88.0,88.0,88.0,88.0,1,4
0,0.01165763750488212,0.01165763750488212,0.01165763750488212,0.01165763750488212,66.0,66.0,66.0,66.0,0.007701008219765615,0.007701008219765615,0.007701008219765615,0.007701008219765615,0.0001358689103889397,0.0001358689103889397,0.0001358689103889397,0.0001358689103889397,1.6457115656077375,1.6457115656077375,1.6457115656077375,1.6457115656077375,96.0,96.0,96.0,96.0,1,5
0,0.010708602094933937,0.010708602094933937,0.010708602094933937,0.010708602094933937,81.0,81.0,81.0,81.0,0.007310572747991208,0.007310572747991208,0.007310572747991208,0.007310572747991208,0.00011464553992929975,0.00011464553992929975,0.00011464553992929975,0.00011464553992929975,1.7490117917088654,1.7490117917088654,1.7490117917088654,1.7490117917088654,110.0,110.0,110.0,110.0,1,6
0,0.02946091407079789,0.02946091407079789,0.02946091407079789,0.02946091407079789,84.0,84.0,84.0,84.0,0.01963454917717937,0.01963454917717937,0.01963454917717937,0.01963454917717937,0.0008679412256313721,0.0008679412256313721,0.0008679412256313721,0.0008679412256313721,5.2747263767431045,5.2747263767431045,5.2747263767431045,5.2747263767431045,109.0,109.0,109.0,109.0,1,2
0,0.0043883812122649316,0.0043883812122649316,0.0043883812122649316,0.0043883812122649316,76.0,76.0,76.0,76.0,0.0034050843063153256,0.0034050843063153256,0.0034050843063153256,0.0034050843063153256,1.924478740688181e-05,1.924478740688181e-05,1.924478740688181e-05,1.924478740688181e-05,0.717621828199457,0.717621828199457,0.717621828199457,0.717621828199457,111.0,111.0,111.0,111.0,1,3
0,0.006411435392161179,0.006411435392161179,0.006411435392161179,0.006411435392161179,85.0,85.0,85.0,85.0,0.005107093751854701,0.005107093751854701,0.005107093751854701,0.005107093751854701,4.1106067360194966e-05,4.1106067360194966e-05,4.1106067360194966e-05,4.1106067360194966e-05,1.2164401053742178,1.2164401053742178,1.2164401053742178,1.2164401053742178,113.0,113.0,113.0,113.0,1,1
0,0.011945671113723433,0.011945671113723433,0.011945671113723433,0.011945671113723433,68.0,68.0,68.0,68.0,0.009270715308223263,0.009270715308223263,0.009270715308223263,0.009270715308223263,0.00014267291519593568,0.00014267291519593568,0.00014267291519593568,0.00014267291519593568,1.9746062721563953,1.9746062721563953,1.9746062721563953,1.9746062721563953,87.0,87.0,87.0,87.0,1,4
0,0.02146576808950759,0.02146576808950759,0.02146576808950759,0.02146576808950759,77.0,77.0,77.0,77.0,0.014945997491501327,0.014945997491501327,0.014945997491501327,0.014945997491501327,0.00046077737071149747,0.00046077737071149747,0.00046077737071149747,0.00046077737071149747,3.6889986793028293,3.6889986793028293,3.6889986793028293,3.6889986793028293,107.0,107.0,107.0,107.0,1,5
0,0.010176249245023654,0.010176249245023654,0.010176249245023654,0.010176249245023654,76.0,76.0,76.0,76.0,0.006315799774685692,0.006315799774685692,0.006315799774685692,0.006315799774685692,0.00010355507181718221,0.00010355507181718221,0.00010355507181718221,0.00010355507181718221,1.4285361214244952,1.4285361214244952,1.4285361214244952,1.4285361214244952,104.0,104.0,104.0,104.0,1,6
0,0.003401232921699094,0.003401232921699094,0.003401232921699094,0.003401232921699094,83.0,83.0,83.0,83.0,0.002586173155209247,0.002586173155209247,0.002586173155209247,0.002586173155209247,1.1563331770452691e-05,1.1563331770452691e-05,1.1563331770452691e-05,1.1563331770452691e-05,0.6646361833149694,0.6646361833149694,0.6646361833149694,0.6646361833149694,119.0,119.0,119.0,119.0,1,3
0,0.006017357694380176,0.006017357694380176,0.006017357694380176,0.006017357694380176,82.0,82.0,82.0,82.0,0.004266957533876644,0.004266957533876644,0.004266957533876644,0.004266957533876644,3.620766550714026e-05,3.620766550714026e-05,3.620766550714026e-05,3.620766550714026e-05,1.015241690990202,1.015241690990202,1.015241690990202,1.015241690990202,118.0,118.0,118.0,118.0,1,1
0,0.017203549435854032,0.017203549435854032,0.017203549435854032,0.017203549435854032,87.0,87.0,87.0,87.0,0.012217079174749661,0.012217079174749661,0.012217079174749661,0.012217079174749661,0.0002959444153673577,0.0002959444153673577,0.0002959444153673577,0.0002959444153673577,3.1789443637181902,3.1789443637181902,3.1789443637181902,3.1789443637181902,104.0,104.0,104.0,104.0,1,2
0,0.013111618885439918,0.013111618885439918,0.013111618885439918,0.013111618885439918,76.0,76.0,76.0,76.0,0.00723267285462564,0.00723267285462564,0.00723267285462564,0.00723267285462564,0.00017189470916799556,0.00017189470916799556,0.00017189470916799556,0.00017189470916799556,1.776610212348384,1.776610212348384,1.776610212348384,1.776610212348384,108.0,108.0,108.0,108.0,1,6
0,0.01692223182828786,0.01692223182828786,0.01692223182828786,0.01692223182828786,76.0,76.0,76.0,76.0,0.01109633990744905,0.01109633990744905,0.01109633990744905,0.01109633990744905,0.0002863416779110582,0.0002863416779110582,0.0002863416779110582,0.0002863416779110582,2.6920068807015625,2.6920068807015625,2.6920068807015625,2.6920068807015625,101.0,101.0,101.0,101.0,1,5
0,0.005585751790273794,0.005585751790273794,0.005585751790273794,0.005585751790273794,81.0,81.0,81.0,81.0,0.003841324552322537,0.003841324552322537,0.003841324552322537,0.003841324552322537,3.12005393672839e-05,3.12005393672839e-05,3.12005393672839e-05,3.12005393672839e-05,0.8848119832705688,0.8848119832705688,0.8848119832705688,0.8848119832705688,100.0,100.0,100.0,100.0,1,3
0,0.028348003787352326,0.028348003787352326,0.028348003787352326,0.028348003787352326,73.0,73.0,73.0,73.0,0.018200451205799814,0.018200451205799814,0.018200451205799814,0.018200451205799814,0.0008035684802808176,0.0008035684802808176,0.0008035684802808176,0.0008035684802808176,4.567109859294048,4.567109859294048,4.567109859294048,4.567109859294048,100.0,100.0,100.0,100.0,1,2
0,0.00889328842519878,0.00889328842519878,0.00889328842519878,0.00889328842519878,70.0,70.0,70.0,70.0,0.006469973970164176,0.006469973970164176,0.006469973970164176,0.006469973970164176,7.901982540146572e-05,7.901982540146572e-05,7.901982540146572e-05,7.901982540146572e-05,1.4372479093105968,1.4372479093105968,1.4372479093105968,1.4372479093105968,107.0,107.0,107.0,107.0,1,1
0,0.015014740416852322,0.015014740416852322,0.015014740416852322,0.015014740416852322,73.0,73.0,73.0,73.0,0.009886057890482415,0.009886057890482415,0.009886057890482415,0.009886057890482415,0.0002254025918438018,0.0002254025918438018,0.0002254025918438018,0.0002254025918438018,1.9821492059268033,1.9821492059268033,1.9821492059268033,1.9821492059268033,98.0,98.0,98.0,98.0,1,4
0,0.006487403449085186,0.006487403449085186,0.006487403449085186,0.006487403449085186,84.0,84.0,84.0,84.0,0.005136070606032307,0.005136070606032307,0.005136070606032307,0.005136070606032307,4.207130333300478e-05,4.207130333300478e-05,4.207130333300478e-05,4.207130333300478e-05,1.2050620209477487,1.2050620209477487,1.2050620209477487,1.2050620209477487,107.0,107.0,107.0,107.0,1,1
0,0.005720096849425603,0.005720096849425603,0.005720096849425603,0.005720096849425603,74.0,74.0,74.0,74.0,0.004537588066066524,0.004537588066066524,0.004537588066066524,0.004537588066066524,3.2703557631776314e-05,3.2703557631776314e-05,3.2703557631776314e-05,3.2703557631776314e-05,0.9329720457649457,0.9329720457649457,0.9329720457649457,0.9329720457649457,106.0,106.0,106.0,106.0,1,3
0,0.024828188311677674,0.024828188311677674,0.024828188311677674,0.024828188311677674,84.0,84.0,84.0,84.0,0.01857308506711203,0.01857308506711203,0.01857308506711203,0.01857308506711203,0.000616428320716775,0.000616428320716775,0.000616428320716775,0.000616428320716775,4.764730561044857,4.764730561044857,4.764730561044857,4.764730561044857,118.0,118.0,118.0,118.0,1,2
0,0.00961361564532125,0.00961361564532125,0.00961361564532125,0.00961361564532125,69.0,69.0,69.0,69.0,0.0070600609245490475,0.0070600609245490475,0.0070600609245490475,0.0070600609245490475,9.239561406514971e-05,9.239561406514971e-05,9.239561406514971e-05,9.239561406514971e-05,1.5565968248747137,1.5565968248747137,1.5565968248747137,1.5565968248747137,85.0,85.0,85.0,85.0,1,4
0,0.014111501369189669,0.014111501369189669,0.014111501369189669,0.014111501369189669,76.0,76.0,76.0,76.0,0.008849084317706903,0.008849084317706903,0.008849084317706903,0.008849084317706903,0.0001991092050656496,0.0001991092050656496,0.0001991092050656496,0.0001991092050656496,2.224720584106426,2.224720584106426,2.224720584106426,2.224720584106426,103.0,103.0,103.0,103.0,1,5
0,0.008967937768878588,0.008967937768878588,0.008967937768878588,0.008967937768878588,77.0,77.0,77.0,77.0,0.005946869650630959,0.005946869650630959,0.005946869650630959,0.005946869650630959,8.041958122332e-05,8.041958122332e-05,8.041958122332e-05,8.041958122332e-05,1.3935470382249,1.3935470382249,1.3935470382249,1.3935470382249,109.0,109.0,109.0,109.0,1,6
0,0.026176959875125697,0.026176959875125697,0.026176959875125697,0.026176959875125697,67.0,67.0,67.0,67.0,0.02020199230644064,0.02020199230644064,0.02020199230644064,0.02020199230644064,0.0006852168516823784,0.0006852168516823784,0.0006852168516823784,0.0006852168516823784,4.3829120974148115,4.3829120974148115,4.3829120974148115,4.3829120974148115,85.0,85.0,85.0,85.0,1,4
0,0.005943857228506016,0.005943857228506016,0.005943857228506016,0.005943857228506016,80.0,80.0,80.0,80.0,0.004597839991668091,0.004597839991668091,0.004597839991668091,0.004597839991668091,3.5329159791373926e-05,3.5329159791373926e-05,3.5329159791373926e-05,3.5329159791373926e-05,1.1124054776796748,1.1124054776796748,1.1124054776796748,1.1124054776796748,102.0,102.0,102.0,102.0,1,1
0,0.004746803374564321,0.004746803374564321,0.004746803374564321,0.004746803374564321,80.0,80.0,80.0,80.0,0.003574156727643962,0.003574156727643962,0.003574156727643962,0.003574156727643962,2.2526588892460963e-05,2.2526588892460963e-05,2.2526588892460963e-05,2.2526588892460963e-05,0.8611843040711059,0.8611843040711059,0.8611843040711059,0.8611843040711059,107.0,107.0,107.0,107.0,1,3
0,0.011977524009514563,0.011977524009514563,0.011977524009514563,0.011977524009514563,97.0,97.0,97.0,97.0,0.00895756080615108,0.00895756080615108,0.00895756080615108,0.00895756080615108,0.00014345873687746563,0.00014345873687746563,0.00014345873687746563,0.00014345873687746563,2.385519812615909,2.385519812615909,2.385519812615909,2.385519812615909,118.0,118.0,118.0,118.0,1,5
0,0.023836374256846714,0.023836374256846714,0.023836374256846714,0.023836374256846714,86.0,86.0,86.0,86.0,0.01715061009301765,0.01715061009301765,0.01715061009301765,0.01715061009301765,0.0005681674134788522,0.0005681674134788522,0.0005681674134788522,0.0005681674134788522,4.496952803893881,4.496952803893881,4.496952803893881,4.496952803893881,107.0,107.0,107.0,107.0,1,2
0,0.013167010472240176,0.013167010472240176,0.013167010472240176,0.013167010472240176,71.0,71.0,71.0,71.0,0.009055710390760037,0.009055710390760037,0.009055710390760037,0.009055710390760037,0.00017333023136805722,0.00017333023136805722,0.00017333023136805722,0.00017333023136805722,2.0998112625235335,2.0998112625235335,2.0998112625235335,2.0998112625235335,98.0,98.0,98.0,98.0,1,6
0,0.02202627189134507,0.02202627189134507,0.02202627189134507,0.02202627189134507,77.0,77.0,77.0,77.0,0.0160643575960102,0.0160643575960102,0.0160643575960102,0.0160643575960102,0.00048514163333292145,0.00048514163333292145,0.00048514163333292145,0.00048514163333292145,3.986104185023983,3.986104185023983,3.986104185023983,3.986104185023983,97.0,97.0,97.0,97.0,1,2
0,0.027999860426379957,0.027999860426379957,0.027999860426379957,0.027999860426379957,73.0,73.0,73.0,73.0,0.02106593278963005,0.02106593278963005,0.02106593278963005,0.02106593278963005,0.0007837864009205941,0.0007837864009205941,0.0007837864009205941,0.0007837864009205941,4.637926528884467,4.637926528884467,4.637926528884467,4.637926528884467,103.0,103.0,103.0,103.0,1,4
0,0.0048618573509564755,0.0048618573509564755,0.0048618573509564755,0.0048618573509564755,85.0,85.0,85.0,85.0,0.0038007246186488952,0.0038007246186488952,0.0038007246186488952,0.0038007246186488952,2.3637628105407926e-05,2.3637628105407926e-05,2.3637628105407926e-05,2.3637628105407926e-05,0.9442601388426917,0.9442601388426917,0.9442601388426917,0.9442601388426917,115.0,115.0,115.0,115.0,1,1
0,0.015109832543323333,0.015109832543323333,0.015109832543323333,0.015109832543323333,84.0,84.0,84.0,84.0,0.010564610934799854,0.010564610934799854,0.010564610934799854,0.010564610934799854,0.00022830702731760753,0.00022830702731760753,0.00022830702731760753,0.00022830702731760753,2.745402004090678,2.745402004090678,2.745402004090678,2.745402004090678,115.0,115.0,115.0,115.0,1,5
0,0.006136986284207459,0.006136986284207459,0.006136986284207459,0.006136986284207459,75.0,75.0,75.0,75.0,0.004624150696259366,0.004624150696259366,0.004624150696259366,0.004624150696259366,3.765750318891723e-05,3.765750318891723e-05,3.765750318891723e-05,3.765750318891723e-05,1.1034612460436337,1.1034612460436337,1.1034612460436337,1.1034612460436337,105.0,105.0,105.0,105.0,1,3
0,0.012198099135632724,0.012198099135632724,0.012198099135632724,0.012198099135632724,79.0,79.0,79.0,79.0,0.008558935857717833,0.008558935857717833,0.008558935857717833,0.008558935857717833,0.00014878263924703462,0.00014878263924703462,0.00014878263924703462,0.00014878263924703462,2.07457712512445,2.07457712512445,2.07457712512445,2.07457712512445,106.0,106.0,106.0,106.0,1,6
0,0.02411434601237381,0.02411434601237381,0.02411434601237381,0.02411434601237381,90.0,90.0,90.0,90.0,0.0169635606723105,0.0169635606723105,0.0169635606723105,0.0169635606723105,0.0005814242063754134,0.0005814242063754134,0.0005814242063754134,0.0005814242063754134,4.342415607360732,4.342415607360732,4.342415607360732,4.342415607360732,110.0,110.0,110.0,110.0,1,5
0,0.010632043986188442,0.010632043986188442,0.010632043986188442,0.010632043986188442,73.0,73.0,73.0,73.0,0.00752458273762342,0.00752458273762342,0.00752458273762342,0.00752458273762342,0.00011293322622877737,0.00011293322622877737,0.00011293322622877737,0.00011293322622877737,1.88213704240807,1.88213704240807,1.88213704240807,1.88213704240807,115.0,115.0,115.0,115.0,1,6
0,0.023817322876983977,0.023817322876983977,0.023817322876983977,0.023817322876983977,85.0,85.0,85.0,85.0,0.01762009229585377,0.01762009229585377,0.01762009229585377,0.01762009229585377,0.0005668924284949578,0.0005668924284949578,0.0005668924284949578,0.0005668924284949578,4.75077069492824,4.75077069492824,4.75077069492824,4.75077069492824,122.0,122.0,122.0,122.0,1,2
0,0.005373231009052744,0.005373231009052744,0.005373231009052744,0.005373231009052744,84.0,84.0,84.0,84.0,0.004299569059922827,0.004299569059922827,0.004299569059922827,0.004299569059922827,2.8865230569056004e-05,2.8865230569056004e-05,2.8865230569056004e-05,2.8865230569056004e-05,1.0926698323495074,1.0926698323495074,1.0926698323495074,1.0926698323495074,118.0,118.0,118.0,118.0,1,1
