,rms0,rms1,rms2,rms3,zc0,zc1,zc2,zc3,mav0,mav1,mav2,mav3,var0,var1,var2,var3,wl0,wl1,wl2,wl3,ssc0,ssc1,ssc2,ssc3,contraction,output
0,0.02332605780218275,0.02332605780218275,0.02332605780218275,0.02332605780218275,48.0,48.0,48.0,48.0,0.018538366255808084,0.018538366255808084,0.018538366255808084,0.018538366255808084,0.0005440498945877803,0.0005440498945877803,0.0005440498945877803,0.0005440498945877803,3.08829610762635,3.08829610762635,3.08829610762635,3.08829610762635,89.0,89.0,89.0,89.0,1,4
0,0.1366437186471001,0.1366437186471001,0.1366437186471001,0.1366437186471001,57.0,57.0,57.0,57.0,0.101227565103222,0.101227565103222,0.101227565103222,0.101227565103222,0.018669923434109913,0.018669923434109913,0.018669923434109913,0.018669923434109913,19.723028526535472,19.723028526535472,19.723028526535472,19.723028526535472,88.0,88.0,88.0,88.0,1,5
0,0.047902476323490706,0.047902476323490706,0.047902476323490706,0.047902476323490706,68.0,68.0,68.0,68.0,0.03820258924520772,0.03820258924520772,0.03820258924520772,0.03820258924520772,0.0022904795754178685,0.0022904795754178685,0.0022904795754178685,0.0022904795754178685,7.738867529337596,7.738867529337596,7.738867529337596,7.738867529337596,100.0,100.0,100.0,100.0,1,1
0,0.061280905722611946,0.061280905722611946,0.061280905722611946,0.061280905722611946,73.0,73.0,73.0,73.0,0.044309672529699674,0.044309672529699674,0.044309672529699674,0.044309672529699674,0.0037553339472777146,0.0037553339472777146,0.0037553339472777146,0.0037553339472777146,9.523970001627657,9.523970001627657,9.523970001627657,9.523970001627657,94.0,94.0,94.0,94.0,1,6
0,0.03746931566028456,0.03746931566028456,0.03746931566028456,0.03746931566028456,64.0,64.0,64.0,64.0,0.02887700195659509,0.02887700195659509,0.02887700195659509,0.02887700195659509,0.0014037412443574913,0.0014037412443574913,0.0014037412443574913,0.0014037412443574913,5.8377803187644055,5.8377803187644055,5.8377803187644055,5.8377803187644055,99.0,99.0,99.0,99.0,1,3
0,0.07879697446097841,0.07879697446097841,0.07879697446097841,0.07879697446097841,44.0,44.0,44.0,44.0,0.054934688637268865,0.054934688637268865,0.054934688637268865,0.054934688637268865,0.006208455434724913,0.006208455434724913,0.006208455434724913,0.006208455434724913,9.513765925408451,9.513765925408451,9.513765925408451,9.513765925408451,88.0,88.0,88.0,88.0,1,2
0,0.030924844902740396,0.030924844902740396,0.030924844902740396,0.030924844902740396,57.0,57.0,57.0,57.0,0.024778373263148485,0.024778373263148485,0.024778373263148485,0.024778373263148485,0.0009561072090071402,0.0009561072090071402,0.0009561072090071402,0.0009561072090071402,4.229493317377097,4.229493317377097,4.229493317377097,4.229493317377097,87.0,87.0,87.0,87.0,1,3
0,0.04315389994441361,0.04315389994441361,0.04315389994441361,0.04315389994441361,76.0,76.0,76.0,76.0,0.03251126998401133,0.03251126998401133,0.03251126998401133,0.03251126998401133,0.0018622530826614193,0.0018622530826614193,0.0018622530826614193,0.0018622530826614193,7.585007722469924,7.585007722469924,7.585007722469924,7.585007722469924,101.0,101.0,101.0,101.0,1,1
0,0.09884294725958569,0.09884294725958569,0.09884294725958569,0.09884294725958569,62.0,62.0,62.0,62.0,0.07644289669473597,0.07644289669473597,0.07644289669473597,0.07644289669473597,0.00976817662895007,0.00976817662895007,0.00976817662895007,0.00976817662895007,15.142956859294506,15.142956859294506,15.142956859294506,15.142956859294506,86.0,86.0,86.0,86.0,1,5
0,0.05923945921307645,0.05923945921307645,0.05923945921307645,0.05923945921307645,66.0,66.0,66.0,66.0,0.04629470759985626,0.04629470759985626,0.04629470759985626,0.04629470759985626,0.0035087274031013033,0.0035087274031013033,0.0035087274031013033,0.0035087274031013033,10.400206385386234,10.400206385386234,10.400206385386234,10.400206385386234,97.0,97.0,97.0,97.0,1,6
0,0.02439478841083468,0.02439478841083468,0.02439478841083468,0.02439478841083468,47.0,47.0,47.0,47.0,0.01957935269873728,0.01957935269873728,0.01957935269873728,0.01957935269873728,0.0005950128035593121,0.0005950128035593121,0.0005950128035593121,0.0005950128035593121,2.961875982289281,2.961875982289281,2.961875982289281,2.961875982289281,92.0,92.0,92.0,92.0,1,4
0,0.04695441867909678,0.04695441867909678,0.04695441867909678,0.04695441867909678,46.0,46.0,46.0,46.0,0.037786396203212634,0.037786396203212634,0.037786396203212634,0.037786396203212634,0.0022024552093454974,0.0022024552093454974,0.0022024552093454974,0.0022024552093454974,5.4696661987101205,5.4696661987101205,5.4696661987101205,5.4696661987101205,98.0,98.0,98.0,98.0,1,2
0,0.055052897097859405,0.055052897097859405,0.055052897097859405,0.055052897097859405,70.0,70.0,70.0,70.0,0.04278716876738782,0.04278716876738782,0.04278716876738782,0.04278716876738782,0.003029214877269937,0.003029214877269937,0.003029214877269937,0.003029214877269937,9.115882372950109,9.115882372950109,9.115882372950109,9.115882372950109,87.0,87.0,87.0,87.0,1,6
0,0.034431208435926876,0.034431208435926876,0.034431208435926876,0.034431208435926876,65.0,65.0,65.0,65.0,0.024671224972053048,0.024671224972053048,0.024671224972053048,0.024671224972053048,0.0011852555893056725,0.0011852555893056725,0.0011852555893056725,0.0011852555893056725,5.2784689546469,5.2784689546469,5.2784689546469,5.2784689546469,99.0,99.0,99.0,99.0,1,3
0,0.06574341650828602,0.06574341650828602,0.06574341650828602,0.06574341650828602,58.0,58.0,58.0,58.0,0.048080166842022966,0.048080166842022966,0.048080166842022966,0.048080166842022966,0.004321391028500865,0.004321391028500865,0.004321391028500865,0.004321391028500865,9.021394158440453,9.021394158440453,9.021394158440453,9.021394158440453,91.0,91.0,91.0,91.0,1,2
0,0.019060009627238524,0.019060009627238524,0.019060009627238524,0.019060009627238524,57.0,57.0,57.0,57.0,0.014560135533694117,0.014560135533694117,0.014560135533694117,0.014560135533694117,0.00036315850904077463,0.00036315850904077463,0.00036315850904077463,0.00036315850904077463,2.552238130801265,2.552238130801265,2.552238130801265,2.552238130801265,95.0,95.0,95.0,95.0,1,4
0,0.039736768067824654,0.039736768067824654,0.039736768067824654,0.039736768067824654,71.0,71.0,71.0,71.0,0.028729682522881148,0.028729682522881148,0.028729682522881148,0.028729682522881148,0.0015788593595082773,0.0015788593595082773,0.0015788593595082773,0.0015788593595082773,6.915844162476237,6.915844162476237,6.915844162476237,6.915844162476237,107.0,107.0,107.0,107.0,1,1
0,0.06878720715085894,0.06878720715085894,0.06878720715085894,0.06878720715085894,60.0,60.0,60.0,60.0,0.05330680105866471,0.05330680105866471,0.05330680105866471,0.05330680105866471,0.004731636568258162,0.004731636568258162,0.004731636568258162,0.004731636568258162,10.519001538747787,10.519001538747787,10.519001538747787,10.519001538747787,90.0,90.0,90.0,90.0,1,5
0,0.015410348734559187,0.015410348734559187,0.015410348734559187,0.015410348734559187,51.0,51.0,51.0,51.0,0.011854180339584264,0.011854180339584264,0.011854180339584264,0.011854180339584264,0.0002374136620783554,0.0002374136620783554,0.0002374136620783554,0.0002374136620783554,1.8694598810601115,1.8694598810601115,1.8694598810601115,1.8694598810601115,89.0,89.0,89.0,89.0,1,4
0,0.02275576571616149,0.02275576571616149,0.02275576571616149,0.02275576571616149,58.0,58.0,58.0,58.0,0.017517697628913653,0.017517697628913653,0.017517697628913653,0.017517697628913653,0.0005178218373718484,0.0005178218373718484,0.0005178218373718484,0.0005178218373718484,3.3858057432207773,3.3858057432207773,3.3858057432207773,3.3858057432207773,91.0,91.0,91.0,91.0,1,3
0,0.031214545965808155,0.031214545965808155,0.031214545965808155,0.031214545965808155,78.0,78.0,78.0,78.0,0.024867851831587427,0.024867851831587427,0.024867851831587427,0.024867851831587427,0.0009743476941502065,0.0009743476941502065,0.0009743476941502065,0.0009743476941502065,5.768382152466263,5.768382152466263,5.768382152466263,5.768382152466263,113.0,113.0,113.0,113.0,1,1
0,0.043337166650283795,0.043337166650283795,0.043337166650283795,0.043337166650283795,64.0,64.0,64.0,64.0,0.03287037667987357,0.03287037667987357,0.03287037667987357,0.03287037667987357,0.001878096651846381,0.001878096651846381,0.001878096651846381,0.001878096651846381,6.1432400984599225,6.1432400984599225,6.1432400984599225,6.1432400984599225,99.0,99.0,99.0,99.0,1,2
0,0.08316432118617194,0.08316432118617194,0.08316432118617194,0.08316432118617194,57.0,57.0,57.0,57.0,0.06230361494716865,0.06230361494716865,0.06230361494716865,0.06230361494716865,0.006915787309766343,0.006915787309766343,0.006915787309766343,0.006915787309766343,11.782794115074502,11.782794115074502,11.782794115074502,11.782794115074502,90.0,90.0,90.0,90.0,1,5
0,0.045100515221360424,0.045100515221360424,0.045100515221360424,0.045100515221360424,79.0,79.0,79.0,79.0,0.03448058962885805,0.03448058962885805,0.03448058962885805,0.03448058962885805,0.0020338934477013696,0.0020338934477013696,0.0020338934477013696,0.0020338934477013696,7.8707916426681495,7.8707916426681495,7.8707916426681495,7.8707916426681495,98.0,98.0,98.0,98.0,1,6
0,0.03143421762554408,0.03143421762554408,0.03143421762554408,0.03143421762554408,79.0,79.0,79.0,79.0,0.02407533103347231,0.02407533103347231,0.02407533103347231,0.02407533103347231,0.0009880910339693171,0.0009880910339693171,0.0009880910339693171,0.0009880910339693171,5.697120439421614,5.697120439421614,5.697120439421614,5.697120439421614,112.0,112.0,112.0,112.0,1,1
0,0.01544873413814484,0.01544873413814484,0.01544873413814484,0.01544873413814484,60.0,60.0,60.0,60.0,0.010757804714014899,0.010757804714014899,0.010757804714014899,0.010757804714014899,0.0002386300025435235,0.0002386300025435235,0.0002386300025435235,0.0002386300025435235,1.707848248066775,1.707848248066775,1.707848248066775,1.707848248066775,97.0,97.0,97.0,97.0,1,4
0,0.030331424567551238,0.030331424567551238,0.030331424567551238,0.030331424567551238,73.0,73.0,73.0,73.0,0.024040949666591423,0.024040949666591423,0.024040949666591423,0.024040949666591423,0.0009190843751889797,0.0009190843751889797,0.0009190843751889797,0.0009190843751889797,5.2186608286301865,5.2186608286301865,5.2186608286301865,5.2186608286301865,95.0,95.0,95.0,95.0,1,6
0,0.06239693097523938,0.06239693097523938,0.06239693097523938,0.06239693097523938,53.0,53.0,53.0,53.0,0.04548135951537481,0.04548135951537481,0.04548135951537481,0.04548135951537481,0.0038912128858388496,0.0038912128858388496,0.0038912128858388496,0.0038912128858388496,7.708147759197111,7.708147759197111,7.708147759197111,7.708147759197111,87.0,87.0,87.0,87.0,1,2
0,0.026986374310206947,0.026986374310206947,0.026986374310206947,0.026986374310206947,48.0,48.0,48.0,48.0,0.021550567516702205,0.021550567516702205,0.021550567516702205,0.021550567516702205,0.0007278661226843518,0.0007278661226843518,0.0007278661226843518,0.0007278661226843518,3.2181154250126456,3.2181154250126456,3.2181154250126456,3.2181154250126456,77.0,77.0,77.0,77.0,1,3
0,0.13737972677457116,0.13737972677457116,0.13737972677457116,0.13737972677457116,58.0,58.0,58.0,58.0,0.10684884526656752,0.10684884526656752,0.10684884526656752,0.10684884526656752,0.01886626390394994,0.01886626390394994,0.01886626390394994,0.01886626390394994,19.75209320561632,19.75209320561632,19.75209320561632,19.75209320561632,74.0,74.0,74.0,74.0,1,5
0,0.05917906832231365,0.05917906832231365,0.05917906832231365,0.05917906832231365,56.0,56.0,56.0,56.0,0.039239360868668735,0.039239360868668735,0.039239360868668735,0.039239360868668735,0.0034969354893436768,0.0034969354893436768,0.0034969354893436768,0.0034969354893436768,6.097146436570293,6.097146436570293,6.097146436570293,6.097146436570293,91.0,91.0,91.0,91.0,1,1
0,0.10584825141885654,0.10584825141885654,0.10584825141885654,0.10584825141885654,63.0,63.0,63.0,63.0,0.08028581407444517,0.08028581407444517,0.08028581407444517,0.08028581407444517,0.011202767079463868,0.011202767079463868,0.011202767079463868,0.011202767079463868,15.540871374417629,15.540871374417629,15.540871374417629,15.540871374417629,85.0,85.0,85.0,85.0,1,5
0,0.030744845101510626,0.030744845101510626,0.030744845101510626,0.030744845101510626,49.0,49.0,49.0,49.0,0.023118469396260305,0.023118469396260305,0.023118469396260305,0.023118469396260305,0.0009451193642354681,0.0009451193642354681,0.0009451193642354681,0.0009451193642354681,3.642901651752532,3.642901651752532,3.642901651752532,3.642901651752532,86.0,86.0,86.0,86.0,1,3
0,0.05322693686272114,0.05322693686272114,0.05322693686272114,0.05322693686272114,58.0,58.0,58.0,58.0,0.03829243425580245,0.03829243425580245,0.03829243425580245,0.03829243425580245,0.0028327653728365833,0.0028327653728365833,0.0028327653728365833,0.0028327653728365833,6.830800786986347,6.830800786986347,6.830800786986347,6.830800786986347,83.0,83.0,83.0,83.0,1,2
0,0.014521381372610036,0.014521381372610036,0.014521381372610036,0.014521381372610036,48.0,48.0,48.0,48.0,0.011767069128147511,0.011767069128147511,0.011767069128147511,0.011767069128147511,0.00021080736606042316,0.00021080736606042316,0.00021080736606042316,0.00021080736606042316,1.9484604329359179,1.9484604329359179,1.9484604329359179,1.9484604329359179,94.0,94.0,94.0,94.0,1,4
0,0.04034053902690385,0.04034053902690385,0.04034053902690385,0.04034053902690385,62.0,62.0,62.0,62.0,0.03069919182554489,0.03069919182554489,0.03069919182554489,0.03069919182554489,0.0016272546044480349,0.0016272546044480349,0.0016272546044480349,0.0016272546044480349,6.182755343109328,6.182755343109328,6.182755343109328,6.182755343109328,96.0,96.0,96.0,96.0,1,6
0,0.03494725346287424,0.03494725346287424,0.03494725346287424,0.03494725346287424,66.0,66.0,66.0,66.0,0.026958413026509774,0.026958413026509774,0.026958413026509774,0.026958413026509774,0.0012212950497056609,0.0012212950497056609,0.0012212950497056609,0.0012212950497056609,5.863482802482087,5.863482802482087,5.863482802482087,5.863482802482087,102.0,102.0,102.0,102.0,1,1
0,0.029855812240545173,0.029855812240545173,0.029855812240545173,0.029855812240545173,70.0,70.0,70.0,70.0,0.02251256507549627,0.02251256507549627,0.02251256507549627,0.02251256507549627,0.0008912101897360423,0.0008912101897360423,0.0008912101897360423,0.0008912101897360423,4.492125079828646,4.492125079828646,4.492125079828646,4.492125079828646,103.0,103.0,103.0,103.0,1,6
0,0.01034180850068543,0.01034180850068543,0.01034180850068543,0.01034180850068543,60.0,60.0,60.0,60.0,0.0081803439036483,0.0081803439036483,0.0081803439036483,0.0081803439036483,0.0001069405046861326,0.0001069405046861326,0.0001069405046861326,0.0001069405046861326,1.5178609407671537,1.5178609407671537,1.5178609407671537,1.5178609407671537,100.0,100.0,100.0,100.0,1,4
0,0.09549649416877522,0.09549649416877522,0.09549649416877522,0.09549649416877522,66.0,66.0,66.0,66.0,0.07690101493412091,0.07690101493412091,0.07690101493412091,0.07690101493412091,0.009119259338042904,0.009119259338042904,0.009119259338042904,0.009119259338042904,14.157985637477394,14.157985637477394,14.157985637477394,14.157985637477394,81.0,81.0,81.0,81.0,1,5
0,0.020235661815450934,0.020235661815450934,0.020235661815450934,0.020235661815450934,52.0,52.0,52.0,52.0,0.015672840059216556,0.015672840059216556,0.015672840059216556,0.015672840059216556,0.0004091303539976629,0.0004091303539976629,0.0004091303539976629,0.0004091303539976629,2.5569216010408757,2.5569216010408757,2.5569216010408757,2.5569216010408757,95.0,95.0,95.0,95.0,1,3
0,0.035499910524956234,0.035499910524956234,0.035499910524956234,0.035499910524956234,50.0,50.0,50.0,50.0,0.026314022973373773,0.026314022973373773,0.026314022973373773,0.026314022973373773,0.001260180253392583,0.001260180253392583,0.001260180253392583,0.001260180253392583,4.61457574641735,4.61457574641735,4.61457574641735,4.61457574641735,95.0,95.0,95.0,95.0,1,2
0,0.0355478830738778,0.0355478830738778,0.0355478830738778,0.0355478830738778,74.0,74.0,74.0,74.0,0.025717563107079816,0.025717563107079816,0.025717563107079816,0.025717563107079816,0.0012633828231409167,0.0012633828231409167,0.0012633828231409167,0.0012633828231409167,6.345056769735395,6.345056769735395,6.345056769735395,6.345056769735395,109.0,109.0,109.0,109.0,1,1
0,0.03505400284085746,0.03505400284085746,0.03505400284085746,0.03505400284085746,70.0,70.0,70.0,70.0,0.025781349614264606,0.025781349614264606,0.025781349614264606,0.025781349614264606,0.0012287826061468153,0.0012287826061468153,0.0012287826061468153,0.0012287826061468153,5.785342939689002,5.785342939689002,5.785342939689002,5.785342939689002,101.0,101.0,101.0,101.0,1,6
0,0.01613504835455371,0.01613504835455371,0.01613504835455371,0.01613504835455371,42.0,42.0,42.0,42.0,0.012427252918164398,0.012427252918164398,0.012427252918164398,0.012427252918164398,0.00026024654010809627,0.00026024654010809627,0.00026024654010809627,0.00026024654010809627,1.9767567588369972,1.9767567588369972,1.9767567588369972,1.9767567588369972,90.0,90.0,90.0,90.0,1,2
0,0.02001368826806827,0.02001368826806827,0.02001368826806827,0.02001368826806827,58.0,58.0,58.0,58.0,0.014479566431514277,0.014479566431514277,0.014479566431514277,0.014479566431514277,0.00040053697452546304,0.00040053697452546304,0.00040053697452546304,0.00040053697452546304,2.481945144794504,2.481945144794504,2.481945144794504,2.481945144794504,103.0,103.0,103.0,103.0,1,4
0,0.10133824673257442,0.10133824673257442,0.10133824673257442,0.10133824673257442,51.0,51.0,51.0,51.0,0.07796073830668161,0.07796073830668161,0.07796073830668161,0.07796073830668161,0.010264575518054436,0.010264575518054436,0.010264575518054436,0.010264575518054436,12.828770232979739,12.828770232979739,12.828770232979739,12.828770232979739,82.0,82.0,82.0,82.0,1,5
0,0.01967228992772965,0.01967228992772965,0.01967228992772965,0.01967228992772965,58.0,58.0,58.0,58.0,0.01535304573578923,0.01535304573578923,0.01535304573578923,0.01535304573578923,0.0003869237480717867,0.0003869237480717867,0.0003869237480717867,0.0003869237480717867,2.495292781541951,2.495292781541951,2.495292781541951,2.495292781541951,88.0,88.0,88.0,88.0,1,3
0,0.1142920538545216,0.1142920538545216,0.1142920538545216,0.1142920538545216,67.0,67.0,67.0,67.0,0.086295568961481,0.086295568961481,0.086295568961481,0.086295568961481,0.013062663942081262,0.013062663942081262,0.013062663942081262,0.013062663942081262,16.566603645067794,16.566603645067794,16.566603645067794,16.566603645067794,89.0,89.0,89.0,89.0,1,5
0,0.04599555804510184,0.04599555804510184,0.04599555804510184,0.04599555804510184,74.0,74.0,74.0,74.0,0.03462655573728191,0.03462655573728191,0.03462655573728191,0.03462655573728191,0.002115209522071344,0.002115209522071344,0.002115209522071344,0.002115209522071344,6.908175174237845,6.908175174237845,6.908175174237845,6.908175174237845,98.0,98.0,98.0,98.0,1,6
0,0.03227119302393002,0.03227119302393002,0.03227119302393002,0.03227119302393002,80.0,80.0,80.0,80.0,0.024463537250300624,0.024463537250300624,0.024463537250300624,0.024463537250300624,0.0010414181657051138,0.0010414181657051138,0.0010414181657051138,0.0010414181657051138,5.965502987611481,5.965502987611481,5.965502987611481,5.965502987611481,111.0,111.0,111.0,111.0,1,1
0,0.0204574165914758,0.0204574165914758,0.0204574165914758,0.0204574165914758,57.0,57.0,57.0,57.0,0.01564649167038906,0.01564649167038906,0.01564649167038906,0.01564649167038906,0.0004183815477312883,0.0004183815477312883,0.0004183815477312883,0.0004183815477312883,2.540012078956697,2.540012078956697,2.540012078956697,2.540012078956697,87.0,87.0,87.0,87.0,1,4
0,0.041175854481612,0.041175854481612,0.041175854481612,0.041175854481612,59.0,59.0,59.0,59.0,0.030015291263480775,0.030015291263480775,0.030015291263480775,0.030015291263480775,0.0016952457152029725,0.0016952457152029725,0.0016952457152029725,0.0016952457152029725,5.607486232116375,5.607486232116375,5.607486232116375,5.607486232116375,87.0,87.0,87.0,87.0,1,2
0,0.0209971299677063,0.0209971299677063,0.0209971299677063,0.0209971299677063,58.0,58.0,58.0,58.0,0.017016384126633165,0.017016384126633165,0.017016384126633165,0.017016384126633165,0.00044083230374996463,0.00044083230374996463,0.00044083230374996463,0.00044083230374996463,3.1394318649281887,3.1394318649281887,3.1394318649281887,3.1394318649281887,84.0,84.0,84.0,84.0,1,3
0,0.028333517504652638,0.028333517504652638,0.028333517504652638,0.028333517504652638,60.0,60.0,60.0,60.0,0.021918078336159347,0.021918078336159347,0.021918078336159347,0.021918078336159347,0.0008021852272655093,0.0008021852272655093,0.0008021852272655093,0.0008021852272655093,4.215032542139028,4.215032542139028,4.215032542139028,4.215032542139028,90.0,90.0,90.0,90.0,1,6
0,0.018139728465617573,0.018139728465617573,0.018139728465617573,0.018139728465617573,67.0,67.0,67.0,67.0,0.013054183648191456,0.013054183648191456,0.013054183648191456,0.013054183648191456,0.0003290485189742298,0.0003290485189742298,0.0003290485189742298,0.0003290485189742298,2.6820455290931973,2.6820455290931973,2.6820455290931973,2.6820455290931973,91.0,91.0,91.0,91.0,1,4
0,0.0543314243895811,0.0543314243895811,0.0543314243895811,0.0543314243895811,52.0,52.0,52.0,52.0,0.040839214568311896,0.040839214568311896,0.040839214568311896,0.040839214568311896,0.0029519035987262345,0.0029519035987262345,0.0029519035987262345,0.0029519035987262345,7.886471722898719,7.886471722898719,7.886471722898719,7.886471722898719,98.0,98.0,98.0,98.0,1,2
0,0.02914737489467931,0.02914737489467931,0.02914737489467931,0.02914737489467931,76.0,76.0,76.0,76.0,0.022261830378468697,0.022261830378468697,0.022261830378468697,0.022261830378468697,0.0008495396694995647,0.0008495396694995647,0.0008495396694995647,0.0008495396694995647,5.248534423019825,5.248534423019825,5.248534423019825,5.248534423019825,108.0,108.0,108.0,108.0,1,1
0,0.024625675524119813,0.024625675524119813,0.024625675524119813,0.024625675524119813,55.0,55.0,55.0,55.0,0.01887147746290133,0.01887147746290133,0.01887147746290133,0.01887147746290133,0.0006064031378108309,0.0006064031378108309,0.0006064031378108309,0.0006064031378108309,3.008419972503938,3.008419972503938,3.008419972503938,3.008419972503938,78.0,78.0,78.0,78.0,1,3
0,0.13251865709003427,0.13251865709003427,0.13251865709003427,0.13251865709003427,64.0,64.0,64.0,64.0,0.1010355763151987,0.1010355763151987,0.1010355763151987,0.1010355763151987,0.017560936416529706,0.017560936416529706,0.017560936416529706,0.017560936416529706,21.495471560331843,21.495471560331843,21.495471560331843,21.495471560331843,90.0,90.0,90.0,90.0,1,5
0,0.04016529601928139,0.04016529601928139,0.04016529601928139,0.04016529601928139,67.0,67.0,67.0,67.0,0.031095259810873178,0.031095259810873178,0.031095259810873178,0.031095259810873178,0.001613228396122613,0.001613228396122613,0.001613228396122613,0.001613228396122613,6.542306638569012,6.542306638569012,6.542306638569012,6.542306638569012,88.0,88.0,88.0,88.0,1,6
0,0.07515901444417322,0.07515901444417322,0.07515901444417322,0.07515901444417322,58.0,58.0,58.0,58.0,0.05611396931833159,0.05611396931833159,0.05611396931833159,0.05611396931833159,0.005647081877501974,0.005647081877501974,0.005647081877501974,0.005647081877501974,10.402089412776666,10.402089412776666,10.402089412776666,10.402089412776666,89.0,89.0,89.0,89.0,1,2
0,0.045543332066159514,0.045543332066159514,0.045543332066159514,0.045543332066159514,76.0,76.0,76.0,76.0,0.03456129270214066,0.03456129270214066,0.03456129270214066,0.03456129270214066,0.0020741934644651658,0.0020741934644651658,0.0020741934644651658,0.0020741934644651658,8.244507255645953,8.244507255645953,8.244507255645953,8.244507255645953,109.0,109.0,109.0,109.0,1,1
0,0.13721055342409,0.13721055342409,0.13721055342409,0.13721055342409,57.0,57.0,57.0,57.0,0.10754841014630724,0.10754841014630724,0.10754841014630724,0.10754841014630724,0.018824378934943615,0.018824378934943615,0.018824378934943615,0.018824378934943615,20.63444339463102,20.63444339463102,20.63444339463102,20.63444339463102,88.0,88.0,88.0,88.0,1,5
0,0.026029375659286712,0.026029375659286712,0.026029375659286712,0.026029375659286712,56.0,56.0,56.0,56.0,0.019769119726706676,0.019769119726706676,0.019769119726706676,0.019769119726706676,0.0006772978528277829,0.0006772978528277829,0.0006772978528277829,0.0006772978528277829,2.9118203330303976,2.9118203330303976,2.9118203330303976,2.9118203330303976,87.0,87.0,87.0,87.0,1,4
0,0.024089305030627523,0.024089305030627523,0.024089305030627523,0.024089305030627523,55.0,55.0,55.0,55.0,0.018360767624818176,0.018360767624818176,0.018360767624818176,0.018360767624818176,0.0005802438167400679,0.0005802438167400679,0.0005802438167400679,0.0005802438167400679,3.148448936840204,3.148448936840204,3.148448936840204,3.148448936840204,84.0,84.0,84.0,84.0,1,3
0,0.12793444713137436,0.12793444713137436,0.12793444713137436,0.12793444713137436,64.0,64.0,64.0,64.0,0.09895692123076108,0.09895692123076108,0.09895692123076108,0.09895692123076108,0.016366731311680767,0.016366731311680767,0.016366731311680767,0.016366731311680767,19.3770332010723,19.3770332010723,19.3770332010723,19.3770332010723,85.0,85.0,85.0,85.0,1,5
0,0.056839876675540954,0.056839876675540954,0.056839876675540954,0.056839876675540954,69.0,69.0,69.0,69.0,0.040456400436218655,0.040456400436218655,0.040456400436218655,0.040456400436218655,0.003230623846785207,0.003230623846785207,0.003230623846785207,0.003230623846785207,9.58157494915594,9.58157494915594,9.58157494915594,9.58157494915594,101.0,101.0,101.0,101.0,1,1
0,0.06076097920549196,0.06076097920549196,0.06076097920549196,0.06076097920549196,56.0,56.0,56.0,56.0,0.046014495983578846,0.046014495983578846,0.046014495983578846,0.046014495983578846,0.0036918042324684854,0.0036918042324684854,0.0036918042324684854,0.0036918042324684854,8.362354967379721,8.362354967379721,8.362354967379721,8.362354967379721,99.0,99.0,99.0,99.0,1,2
0,0.05700533826439063,0.05700533826439063,0.05700533826439063,0.05700533826439063,72.0,72.0,72.0,72.0,0.04679220511318055,0.04679220511318055,0.04679220511318055,0.04679220511318055,0.00324946441325212,0.00324946441325212,0.00324946441325212,0.00324946441325212,10.252803164142541,10.252803164142541,10.252803164142541,10.252803164142541,94.0,94.0,94.0,94.0,1,6
0,0.022054285710949948,0.022054285710949948,0.022054285710949948,0.022054285710949948,53.0,53.0,53.0,53.0,0.017218314872319892,0.017218314872319892,0.017218314872319892,0.017218314872319892,0.00048618460758315113,0.00048618460758315113,0.00048618460758315113,0.00048618460758315113,3.027689067273415,3.027689067273415,3.027689067273415,3.027689067273415,85.0,85.0,85.0,85.0,1,3
0,0.015647978198605233,0.015647978198605233,0.015647978198605233,0.015647978198605233,55.0,55.0,55.0,55.0,0.012461814067442002,0.012461814067442002,0.012461814067442002,0.012461814067442002,0.00024485385106488605,0.00024485385106488605,0.00024485385106488605,0.00024485385106488605,2.0892393649733796,2.0892393649733796,2.0892393649733796,2.0892393649733796,92.0,92.0,92.0,92.0,1,4
0,0.014772142915844147,0.014772142915844147,0.014772142915844147,0.014772142915844147,50.0,50.0,50.0,50.0,0.011528366564724184,0.011528366564724184,0.011528366564724184,0.011528366564724184,0.00021820719844590038,0.00021820719844590038,0.00021820719844590038,0.00021820719844590038,1.8326805624953744,1.8326805624953744,1.8326805624953744,1.8326805624953744,87.0,87.0,87.0,87.0,1,3
0,0.017952837842980893,0.017952837842980893,0.017952837842980893,0.017952837842980893,58.0,58.0,58.0,58.0,0.014690269681945867,0.014690269681945867,0.014690269681945867,0.014690269681945867,0.00032207815402153733,0.00032207815402153733,0.00032207815402153733,0.00032207815402153733,2.4884591886794403,2.4884591886794403,2.4884591886794403,2.4884591886794403,95.0,95.0,95.0,95.0,1,4
0,0.09973213438971203,0.09973213438971203,0.09973213438971203,0.09973213438971203,69.0,69.0,69.0,69.0,0.08021174270086061,0.08021174270086061,0.08021174270086061,0.08021174270086061,0.009942863807909104,0.009942863807909104,0.009942863807909104,0.009942863807909104,17.43698987001112,17.43698987001112,17.43698987001112,17.43698987001112,96.0,96.0,96.0,96.0,1,5
0,0.07929425363226947,0.07929425363226947,0.07929425363226947,0.07929425363226947,54.0,54.0,54.0,54.0,0.05609905184187998,0.05609905184187998,0.05609905184187998,0.05609905184187998,0.006285932942441975,0.006285932942441975,0.006285932942441975,0.006285932942441975,9.22834351726292,9.22834351726292,9.22834351726292,9.22834351726292,89.0,89.0,89.0,89.0,1,2
0,0.03829489426020303,0.03829489426020303,0.03829489426020303,0.03829489426020303,60.0,60.0,60.0,60.0,0.028147443325143753,0.028147443325143753,0.028147443325143753,0.028147443325143753,0.0014661337544714054,0.0014661337544714054,0.0014661337544714054,0.0014661337544714054,5.698907560611589,5.698907560611589,5.698907560611589,5.698907560611589,93.0,93.0,93.0,93.0,1,6
0,0.03183529407337256,0.03183529407337256,0.03183529407337256,0.03183529407337256,70.0,70.0,70.0,70.0,0.024964557393235273,0.024964557393235273,0.024964557393235273,0.024964557393235273,0.0010134775715974198,0.0010134775715974198,0.0010134775715974198,0.0010134775715974198,5.370646916628384,5.370646916628384,5.370646916628384,5.370646916628384,111.0,111.0,111.0,111.0,1,1
0,0.06281734507621223,0.06281734507621223,0.06281734507621223,0.06281734507621223,55.0,55.0,55.0,55.0,0.04824424998040047,0.04824424998040047,0.04824424998040047,0.04824424998040047,0.003945035655577327,0.003945035655577327,0.003945035655577327,0.003945035655577327,8.329723556704959,8.329723556704959,8.329723556704959,8.329723556704959,86.0,86.0,86.0,86.0,1,2
0,0.14004142521632856,0.14004142521632856,0.14004142521632856,0.14004142521632856,69.0,69.0,69.0,69.0,0.10605836096383083,0.10605836096383083,0.10605836096383083,0.10605836096383083,0.019607294077713874,0.019607294077713874,0.019607294077713874,0.019607294077713874,22.769985148941174,22.769985148941174,22.769985148941174,22.769985148941174,84.0,84.0,84.0,84.0,1,5
0,0.04713822050117236,0.04713822050117236,0.04713822050117236,0.04713822050117236,47.0,47.0,47.0,47.0,0.03596846228902223,0.03596846228902223,0.03596846228902223,0.03596846228902223,0.002221748113378623,0.002221748113378623,0.002221748113378623,0.002221748113378623,5.119443391642694,5.119443391642694,5.119443391642694,5.119443391642694,80.0,80.0,80.0,80.0,1,1
0,0.012355659270467624,0.012355659270467624,0.012355659270467624,0.012355659270467624,55.0,55.0,55.0,55.0,0.00986089098792166,0.00986089098792166,0.00986089098792166,0.00986089098792166,0.00015234724632619165,0.00015234724632619165,0.00015234724632619165,0.00015234724632619165,1.553837917781797,1.553837917781797,1.553837917781797,1.553837917781797,89.0,89.0,89.0,89.0,1,4
0,0.018901197252809858,0.018901197252809858,0.018901197252809858,0.018901197252809858,52.0,52.0,52.0,52.0,0.014326284822608908,0.014326284822608908,0.014326284822608908,0.014326284822608908,0.00035675166388765084,0.00035675166388765084,0.00035675166388765084,0.00035675166388765084,2.240268261199836,2.240268261199836,2.240268261199836,2.240268261199836,86.0,86.0,86.0,86.0,1,3
0,0.0325135121930516,0.0325135121930516,0.0325135121930516,0.0325135121930516,70.0,70.0,70.0,70.0,0.025679926889373483,0.025679926889373483,0.025679926889373483,0.025679926889373483,0.0010571080520667836,0.0010571080520667836,0.0010571080520667836,0.0010571080520667836,4.879816309790309,4.879816309790309,4.879816309790309,4.879816309790309,101.0,101.0,101.0,101.0,1,6
0,0.015690020844818877,0.015690020844818877,0.015690020844818877,0.015690020844818877,48.0,48.0,48.0,48.0,0.012397345710979533,0.012397345710979533,0.012397345710979533,0.012397345710979533,0.0002460980091468057,0.0002460980091468057,0.0002460980091468057,0.0002460980091468057,1.974925637469158,1.974925637469158,1.974925637469158,1.974925637469158,87.0,87.0,87.0,87.0,1,4
0,0.018991657409543502,0.018991657409543502,0.018991657409543502,0.018991657409543502,57.0,57.0,57.0,57.0,0.014614780170225777,0.014614780170225777,0.014614780170225777,0.014614780170225777,0.0003606256569470967,0.0003606256569470967,0.0003606256569470967,0.0003606256569470967,2.320511633208679,2.320511633208679,2.320511633208679,2.320511633208679,89.0,89.0,89.0,89.0,1,3
0,0.10015598909650605,0.10015598909650605,0.10015598909650605,0.10015598909650605,66.0,66.0,66.0,66.0,0.08186996704737293,0.08186996704737293,0.08186996704737293,0.08186996704737293,0.010029231664593987,0.010029231664593987,0.010029231664593987,0.010029231664593987,16.471050974745022,16.471050974745022,16.471050974745022,16.471050974745022,100.0,100.0,100.0,100.0,1,5
0,0.03338296211517634,0.03338296211517634,0.03338296211517634,0.03338296211517634,72.0,72.0,72.0,72.0,0.026752747506303916,0.026752747506303916,0.026752747506303916,0.026752747506303916,0.0011143645192644464,0.0011143645192644464,0.0011143645192644464,0.0011143645192644464,6.36941100975432,6.36941100975432,6.36941100975432,6.36941100975432,118.0,118.0,118.0,118.0,1,1
0,0.0406873225501698,0.0406873225501698,0.0406873225501698,0.0406873225501698,67.0,67.0,67.0,67.0,0.030154302338633917,0.030154302338633917,0.030154302338633917,0.030154302338633917,0.0016552754009740217,0.0016552754009740217,0.0016552754009740217,0.0016552754009740217,5.875832042325586,5.875832042325586,5.875832042325586,5.875832042325586,95.0,95.0,95.0,95.0,1,6
0,0.023102282732233463,0.023102282732233463,0.023102282732233463,0.023102282732233463,53.0,53.0,53.0,53.0,0.01667303159461605,0.01667303159461605,0.01667303159461605,0.01667303159461605,0.0005324941243854056,0.0005324941243854056,0.0005324941243854056,0.0005324941243854056,2.525627073970452,2.525627073970452,2.525627073970452,2.525627073970452,87.0,87.0,87.0,87.0,1,2
0,0.03934926594243991,0.03934926594243991,0.03934926594243991,0.03934926594243991,80.0,80.0,80.0,80.0,0.030716299033793068,0.030716299033793068,0.030716299033793068,0.030716299033793068,0.0015481930036424173,0.0015481930036424173,0.0015481930036424173,0.0015481930036424173,6.774538024214758,6.774538024214758,6.774538024214758,6.774538024214758,108.0,108.0,108.0,108.0,1,1
0,0.01573847037114439,0.01573847037114439,0.01573847037114439,0.01573847037114439,41.0,41.0,41.0,41.0,0.012160479789621655,0.012160479789621655,0.012160479789621655,0.012160479789621655,0.00024757717818024266,0.00024757717818024266,0.00024757717818024266,0.00024757717818024266,1.6711122713087214,1.6711122713087214,1.6711122713087214,1.6711122713087214,88.0,88.0,88.0,88.0,1,4
0,0.07352452267691141,0.07352452267691141,0.07352452267691141,0.07352452267691141,46.0,46.0,46.0,46.0,0.053506731516181585,0.053506731516181585,0.053506731516181585,0.053506731516181585,0.005404923050979719,0.005404923050979719,0.005404923050979719,0.005404923050979719,8.449532881506833,8.449532881506833,8.449532881506833,8.449532881506833,95.0,95.0,95.0,95.0,1,2
0,0.023437642601875218,0.023437642601875218,0.023437642601875218,0.023437642601875218,53.0,53.0,53.0,53.0,0.01769970571456906,0.01769970571456906,0.01769970571456906,0.01769970571456906,0.0005491212548783972,0.0005491212548783972,0.0005491212548783972,0.0005491212548783972,2.781345333476188,2.781345333476188,2.781345333476188,2.781345333476188,78.0,78.0,78.0,78.0,1,3
0,0.03611544659548963,0.03611544659548963,0.03611544659548963,0.03611544659548963,74.0,74.0,74.0,74.0,0.02830755330572849,0.02830755330572849,0.02830755330572849,0.02830755330572849,0.001304221664495652,0.001304221664495652,0.001304221664495652,0.001304221664495652,5.874937416823647,5.874937416823647,5.874937416823647,5.874937416823647,102.0,102.0,102.0,102.0,1,6
0,0.13023186429304165,0.13023186429304165,0.13023186429304165,0.13023186429304165,66.0,66.0,66.0,66.0,0.10086009169353968,0.10086009169353968,0.10086009169353968,0.10086009169353968,0.01695869131992598,0.01695869131992598,0.01695869131992598,0.01695869131992598,20.63921874810245,20.63921874810245,20.63921874810245,20.63921874810245,91.0,91.0,91.0,91.0,1,5
0,0.11289380723493096,0.11289380723493096,0.11289380723493096,0.11289380723493096,61.0,61.0,61.0,61.0,0.08741543361167065,0.08741543361167065,0.08741543361167065,0.08741543361167065,0.012745010002799739,0.012745010002799739,0.012745010002799739,0.012745010002799739,17.426220012521142,17.426220012521142,17.426220012521142,17.426220012521142,84.0,84.0,84.0,84.0,1,5
0,0.03477948634702858,0.03477948634702858,0.03477948634702858,0.03477948634702858,67.0,67.0,67.0,67.0,0.026184834893719335,0.026184834893719335,0.026184834893719335,0.026184834893719335,0.001208626312297346,0.001208626312297346,0.001208626312297346,0.001208626312297346,5.460922260142771,5.460922260142771,5.460922260142771,5.460922260142771,105.0,105.0,105.0,105.0,1,1
0,0.049021437912599886,0.049021437912599886,0.049021437912599886,0.049021437912599886,63.0,63.0,63.0,63.0,0.03864306671982141,0.03864306671982141,0.03864306671982141,0.03864306671982141,0.002400910877908355,0.002400910877908355,0.002400910877908355,0.002400910877908355,6.643467891771525,6.643467891771525,6.643467891771525,6.643467891771525,95.0,95.0,95.0,95.0,1,2
0,0.038352722127614314,0.038352722127614314,0.038352722127614314,0.038352722127614314,49.0,49.0,49.0,49.0,0.029162631361680794,0.029162631361680794,0.029162631361680794,0.029162631361680794,0.001468026181261508,0.001468026181261508,0.001468026181261508,0.001468026181261508,4.680553633399177,4.680553633399177,4.680553633399177,4.680553633399177,89.0,89.0,89.0,89.0,1,3
0,0.035272396585483576,0.035272396585483576,0.035272396585483576,0.035272396585483576,62.0,62.0,62.0,62.0,0.02795180874506049,0.02795180874506049,0.02795180874506049,0.02795180874506049,0.0012434992750883446,0.0012434992750883446,0.0012434992750883446,0.0012434992750883446,4.963576206022412,4.963576206022412,4.963576206022412,4.963576206022412,105.0,105.0,105.0,105.0,1,6
0,0.027318510913403198,0.027318510913403198,0.027318510913403198,0.027318510913403198,47.0,47.0,47.0,47.0,0.01932928502510709,0.01932928502510709,0.01932928502510709,0.01932928502510709,0.0007452964730696679,0.0007452964730696679,0.0007452964730696679,0.0007452964730696679,3.259765124429025,3.259765124429025,3.259765124429025,3.259765124429025,85.0,85.0,85.0,85.0,1,4
0,0.033611957610066114,0.033611957610066114,0.033611957610066114,0.033611957610066114,69.0,69.0,69.0,69.0,0.026736036092068326,0.026736036092068326,0.026736036092068326,0.026736036092068326,0.0011288514372323577,0.0011288514372323577,0.0011288514372323577,0.0011288514372323577,5.4201887684905214,5.4201887684905214,5.4201887684905214,5.4201887684905214,100.0,100.0,100.0,100.0,1,6
0,0.04067636235120936,0.04067636235120936,0.04067636235120936,0.04067636235120936,57.0,57.0,57.0,57.0,0.03154365723172016,0.03154365723172016,0.03154365723172016,0.03154365723172016,0.0016543461562072532,0.0016543461562072532,0.0016543461562072532,0.0016543461562072532,4.976938657554728,4.976938657554728,4.976938657554728,4.976938657554728,80.0,80.0,80.0,80.0,1,2
0,0.1350317698633222,0.1350317698633222,0.1350317698633222,0.1350317698633222,64.0,64.0,64.0,64.0,0.10182429817202472,0.10182429817202472,0.10182429817202472,0.10182429817202472,0.018233483334168535,0.018233483334168535,0.018233483334168535,0.018233483334168535,22.063025192997905,22.063025192997905,22.063025192997905,22.063025192997905,95.0,95.0,95.0,95.0,1,5
0,0.021852439157416758,0.021852439157416758,0.021852439157416758,0.021852439157416758,55.0,55.0,55.0,55.0,0.016264430676989298,0.016264430676989298,0.016264430676989298,0.016264430676989298,0.0004775015098000236,0.0004775015098000236,0.0004775015098000236,0.0004775015098000236,2.797412598311451,2.797412598311451,2.797412598311451,2.797412598311451,90.0,90.0,90.0,90.0,1,3
0,0.04575576079972006,0.04575576079972006,0.04575576079972006,0.04575576079972006,73.0,73.0,73.0,73.0,0.03527707876896748,0.03527707876896748,0.03527707876896748,0.03527707876896748,0.0020935637617003617,0.0020935637617003617,0.0020935637617003617,0.0020935637617003617,8.605350680196167,8.605350680196167,8.605350680196167,8.605350680196167,115.0,115.0,115.0,115.0,1,1
0,0.021573912702748735,0.021573912702748735,0.021573912702748735,0.021573912702748735,50.0,50.0,50.0,50.0,0.01611000700433802,0.01611000700433802,0.01611000700433802,0.01611000700433802,0.00046447030364331587,0.00046447030364331587,0.00046447030364331587,0.00046447030364331587,2.0710601487223457,2.0710601487223457,2.0710601487223457,2.0710601487223457,79.0,79.0,79.0,79.0,1,4
0,0.11878870037828508,0.11878870037828508,0.11878870037828508,0.11878870037828508,66.0,66.0,66.0,66.0,0.09161433958851829,0.09161433958851829,0.09161433958851829,0.09161433958851829,0.014104889057514787,0.014104889057514787,0.014104889057514787,0.014104889057514787,17.354131116157923,17.354131116157923,17.354131116157923,17.354131116157923,86.0,86.0,86.0,86.0,1,5
0,0.020635368038101596,0.020635368038101596,0.020635368038101596,0.020635368038101596,47.0,47.0,47.0,47.0,0.016296950844402424,0.016296950844402424,0.016296950844402424,0.016296950844402424,0.0004256994867116885,0.0004256994867116885,0.0004256994867116885,0.0004256994867116885,2.5680752085075786,2.5680752085075786,2.5680752085075786,2.5680752085075786,95.0,95.0,95.0,95.0,1,4
0,0.07442244942278696,0.07442244942278696,0.07442244942278696,0.07442244942278696,46.0,46.0,46.0,46.0,0.054455204706200765,0.054455204706200765,0.054455204706200765,0.054455204706200765,0.0055374903856834305,0.0055374903856834305,0.0055374903856834305,0.0055374903856834305,8.681177752883206,8.681177752883206,8.681177752883206,8.681177752883206,85.0,85.0,85.0,85.0,1,2
0,0.04595460439432248,0.04595460439432248,0.04595460439432248,0.04595460439432248,64.0,64.0,64.0,64.0,0.03311608347060799,0.03311608347060799,0.03311608347060799,0.03311608347060799,0.002111610416420245,0.002111610416420245,0.002111610416420245,0.002111610416420245,7.08226382697336,7.08226382697336,7.08226382697336,7.08226382697336,96.0,96.0,96.0,96.0,1,1
0,0.022577337468921238,0.022577337468921238,0.022577337468921238,0.022577337468921238,52.0,52.0,52.0,52.0,0.017729701075602556,0.017729701075602556,0.017729701075602556,0.017729701075602556,0.0005096136512033207,0.0005096136512033207,0.0005096136512033207,0.0005096136512033207,2.645477195064709,2.645477195064709,2.645477195064709,2.645477195064709,96.0,96.0,96.0,96.0,1,3
0,0.033056586831262655,0.033056586831262655,0.033056586831262655,0.033056586831262655,61.0,61.0,61.0,61.0,0.026029948813561833,0.026029948813561833,0.026029948813561833,0.026029948813561833,0.0010927375852723977,0.0010927375852723977,0.0010927375852723977,0.0010927375852723977,5.246048099578321,5.246048099578321,5.246048099578321,5.246048099578321,86.0,86.0,86.0,86.0,1,6
0,0.033062160977963086,0.033062160977963086,0.033062160977963086,0.033062160977963086,57.0,57.0,57.0,57.0,0.025136180313239408,0.025136180313239408,0.025136180313239408,0.025136180313239408,0.0010930137523554072,0.0010930137523554072,0.0010930137523554072,0.0010930137523554072,3.9250936932936322,3.9250936932936322,3.9250936932936322,3.9250936932936322,84.0,84.0,84.0,84.0,1,3
0,0.030569866589064527,0.030569866589064527,0.030569866589064527,0.030569866589064527,40.0,40.0,40.0,40.0,0.021930012586577907,0.021930012586577907,0.021930012586577907,0.021930012586577907,0.0009343501448805994,0.0009343501448805994,0.0009343501448805994,0.0009343501448805994,2.737463622749972,2.737463622749972,2.737463622749972,2.737463622749972,76.0,76.0,76.0,76.0,1,2
0,0.01607975709658741,0.01607975709658741,0.01607975709658741,0.01607975709658741,53.0,53.0,53.0,53.0,0.012772075199105264,0.012772075199105264,0.012772075199105264,0.012772075199105264,0.0002584585498814586,0.0002584585498814586,0.0002584585498814586,0.0002584585498814586,2.0768617938056524,2.0768617938056524,2.0768617938056524,2.0768617938056524,94.0,94.0,94.0,94.0,1,4
0,0.04110710295810339,0.04110710295810339,0.04110710295810339,0.04110710295810339,75.0,75.0,75.0,75.0,0.031180748709813026,0.031180748709813026,0.031180748709813026,0.031180748709813026,0.001689691317378702,0.001689691317378702,0.001689691317378702,0.001689691317378702,7.415360543337915,7.415360543337915,7.415360543337915,7.415360543337915,94.0,94.0,94.0,94.0,1,6
0,0.037037846769860286,0.037037846769860286,0.037037846769860286,0.037037846769860286,77.0,77.0,77.0,77.0,0.027278217256171224,0.027278217256171224,0.027278217256171224,0.027278217256171224,0.0013716931143291462,0.0013716931143291462,0.0013716931143291462,0.0013716931143291462,6.7573219184156645,6.7573219184156645,6.7573219184156645,6.7573219184156645,106.0,106.0,106.0,106.0,1,1
0,0.11050546380732018,0.11050546380732018,0.11050546380732018,0.11050546380732018,67.0,67.0,67.0,67.0,0.08729424023246991,0.08729424023246991,0.08729424023246991,0.08729424023246991,0.012211454383749591,0.012211454383749591,0.012211454383749591,0.012211454383749591,17.142737363729374,17.142737363729374,17.142737363729374,17.142737363729374,85.0,85.0,85.0,85.0,1,5
0,0.12442528801695697,0.12442528801695697,0.12442528801695697,0.12442528801695697,69.0,69.0,69.0,69.0,0.09464329796492152,0.09464329796492152,0.09464329796492152,0.09464329796492152,0.015480174192835481,0.015480174192835481,0.015480174192835481,0.015480174192835481,19.726201786854865,19.726201786854865,19.726201786854865,19.726201786854865,89.0,89.0,89.0,89.0,1,5
0,0.01794459159608817,0.01794459159608817,0.01794459159608817,0.01794459159608817,64.0,64.0,64.0,64.0,0.013935115397016827,0.013935115397016827,0.013935115397016827,0.013935115397016827,0.0003218683920500055,0.0003218683920500055,0.0003218683920500055,0.0003218683920500055,2.5322687927297194,2.5322687927297194,2.5322687927297194,2.5322687927297194,95.0,95.0,95.0,95.0,1,4
0,0.046561260729177864,0.046561260729177864,0.046561260729177864,0.046561260729177864,74.0,74.0,74.0,74.0,0.03440589315880167,0.03440589315880167,0.03440589315880167,0.03440589315880167,0.0021673957206223156,0.0021673957206223156,0.0021673957206223156,0.0021673957206223156,7.762405274097621,7.762405274097621,7.762405274097621,7.762405274097621,101.0,101.0,101.0,101.0,1,6
0,0.024729304252690185,0.024729304252690185,0.024729304252690185,0.024729304252690185,53.0,53.0,53.0,53.0,0.01907778474336819,0.01907778474336819,0.01907778474336819,0.01907778474336819,0.0006108635602338554,0.0006108635602338554,0.0006108635602338554,0.0006108635602338554,3.0904316522832644,3.0904316522832644,3.0904316522832644,3.0904316522832644,86.0,86.0,86.0,86.0,1,3
0,0.0358396478721785,0.0358396478721785,0.0358396478721785,0.0358396478721785,74.0,74.0,74.0,74.0,0.02703539952646259,0.02703539952646259,0.02703539952646259,0.02703539952646259,0.0012842588233968415,0.0012842588233968415,0.0012842588233968415,0.0012842588233968415,6.545706729538312,6.545706729538312,6.545706729538312,6.545706729538312,115.0,115.0,115.0,115.0,1,1
0,0.04816380336581432,0.04816380336581432,0.04816380336581432,0.04816380336581432,51.0,51.0,51.0,51.0,0.03683314806685674,0.03683314806685674,0.03683314806685674,0.03683314806685674,0.0023197074057662694,0.0023197074057662694,0.0023197074057662694,0.0023197074057662694,6.192573400439294,6.192573400439294,6.192573400439294,6.192573400439294,73.0,73.0,73.0,73.0,1,2
0,0.017889192672202698,0.017889192672202698,0.017889192672202698,0.017889192672202698,50.0,50.0,50.0,50.0,0.013769495717760266,0.013769495717760266,0.013769495717760266,0.013769495717760266,0.00032002224341699846,0.00032002224341699846,0.00032002224341699846,0.00032002224341699846,2.1243507881104744,2.1243507881104744,2.1243507881104744,2.1243507881104744,95.0,95.0,95.0,95.0,1,4
0,0.08752876689422363,0.08752876689422363,0.08752876689422363,0.08752876689422363,66.0,66.0,66.0,66.0,0.06341290655521466,0.06341290655521466,0.06341290655521466,0.06341290655521466,0.00766060914353468,0.00766060914353468,0.00766060914353468,0.00766060914353468,12.56153710017066,12.56153710017066,12.56153710017066,12.56153710017066,94.0,94.0,94.0,94.0,1,5
0,0.03813180125572193,0.03813180125572193,0.03813180125572193,0.03813180125572193,67.0,67.0,67.0,67.0,0.027513626292310453,0.027513626292310453,0.027513626292310453,0.027513626292310453,0.0014539964498296797,0.0014539964498296797,0.0014539964498296797,0.0014539964498296797,6.364952403669216,6.364952403669216,6.364952403669216,6.364952403669216,98.0,98.0,98.0,98.0,1,1
0,0.022066458390723492,0.022066458390723492,0.022066458390723492,0.022066458390723492,39.0,39.0,39.0,39.0,0.017677661542137877,0.017677661542137877,0.017677661542137877,0.017677661542137877,0.0004869156025957065,0.0004869156025957065,0.0004869156025957065,0.0004869156025957065,2.210695250830695,2.210695250830695,2.210695250830695,2.210695250830695,79.0,79.0,79.0,79.0,1,3
0,0.04085053491013086,0.04085053491013086,0.04085053491013086,0.04085053491013086,44.0,44.0,44.0,44.0,0.03142120573643759,0.03142120573643759,0.03142120573643759,0.03142120573643759,0.0016684548186024742,0.0016684548186024742,0.0016684548186024742,0.0016684548186024742,4.656337342573969,4.656337342573969,4.656337342573969,4.656337342573969,79.0,79.0,79.0,79.0,1,2
0,0.05027744165463814,0.05027744165463814,0.05027744165463814,0.05027744165463814,61.0,61.0,61.0,61.0,0.03732769251230141,0.03732769251230141,0.03732769251230141,0.03732769251230141,0.0025267385546731275,0.0025267385546731275,0.0025267385546731275,0.0025267385546731275,8.421603184909552,8.421603184909552,8.421603184909552,8.421603184909552,95.0,95.0,95.0,95.0,1,6
0,0.03230723229855424,0.03230723229855424,0.03230723229855424,0.03230723229855424,44.0,44.0,44.0,44.0,0.025377064172527608,0.025377064172527608,0.025377064172527608,0.025377064172527608,0.0010437370743282789,0.0010437370743282789,0.0010437370743282789,0.0010437370743282789,3.488028440757205,3.488028440757205,3.488028440757205,3.488028440757205,83.0,83.0,83.0,83.0,1,2
0,0.047343918835252755,0.047343918835252755,0.047343918835252755,0.047343918835252755,52.0,52.0,52.0,52.0,0.03683508141521781,0.03683508141521781,0.03683508141521781,0.03683508141521781,0.0022413579169884112,0.0022413579169884112,0.0022413579169884112,0.0022413579169884112,6.626010573580226,6.626010573580226,6.626010573580226,6.626010573580226,95.0,95.0,95.0,95.0,1,6
0,0.04420152337409149,0.04420152337409149,0.04420152337409149,0.04420152337409149,76.0,76.0,76.0,76.0,0.032761563739645616,0.032761563739645616,0.032761563739645616,0.032761563739645616,0.001953622857245129,0.001953622857245129,0.001953622857245129,0.001953622857245129,8.10240873738838,8.10240873738838,8.10240873738838,8.10240873738838,106.0,106.0,106.0,106.0,1,1
0,0.009678983859730629,0.009678983859730629,0.009678983859730629,0.009678983859730629,53.0,53.0,53.0,53.0,0.00747116824428242,0.00747116824428242,0.00747116824428242,0.00747116824428242,9.367222239561212e-05,9.367222239561212e-05,9.367222239561212e-05,9.367222239561212e-05,1.2150331935043117,1.2150331935043117,1.2150331935043117,1.2150331935043117,90.0,90.0,90.0,90.0,1,4
0,0.09737112187111646,0.09737112187111646,0.09737112187111646,0.09737112187111646,60.0,60.0,60.0,60.0,0.08127797855513029,0.08127797855513029,0.08127797855513029,0.08127797855513029,0.00948038714207306,0.00948038714207306,0.00948038714207306,0.00948038714207306,14.510620901140513,14.510620901140513,14.510620901140513,14.510620901140513,74.0,74.0,74.0,74.0,1,5
0,0.030384363273686436,0.030384363273686436,0.030384363273686436,0.030384363273686436,46.0,46.0,46.0,46.0,0.023297105732239167,0.023297105732239167,0.023297105732239167,0.023297105732239167,0.0009226371613550034,0.0009226371613550034,0.0009226371613550034,0.0009226371613550034,3.7992737350332453,3.7992737350332453,3.7992737350332453,3.7992737350332453,90.0,90.0,90.0,90.0,1,3
0,0.017614287225451008,0.017614287225451008,0.017614287225451008,0.017614287225451008,57.0,57.0,57.0,57.0,0.013700342934277179,0.013700342934277179,0.013700342934277179,0.013700342934277179,0.00031022730894551543,0.00031022730894551543,0.00031022730894551543,0.00031022730894551543,2.3998134577388486,2.3998134577388486,2.3998134577388486,2.3998134577388486,90.0,90.0,90.0,90.0,1,3
0,0.017095955534780397,0.017095955534780397,0.017095955534780397,0.017095955534780397,46.0,46.0,46.0,46.0,0.0140960353919483,0.0140960353919483,0.0140960353919483,0.0140960353919483,0.00029227169296465856,0.00029227169296465856,0.00029227169296465856,0.00029227169296465856,2.230174742415421,2.230174742415421,2.230174742415421,2.230174742415421,89.0,89.0,89.0,89.0,1,4
0,0.038842841209057635,0.038842841209057635,0.038842841209057635,0.038842841209057635,59.0,59.0,59.0,59.0,0.029582149566320298,0.029582149566320298,0.029582149566320298,0.029582149566320298,0.0015082972577421488,0.0015082972577421488,0.0015082972577421488,0.0015082972577421488,5.944432332006643,5.944432332006643,5.944432332006643,5.944432332006643,86.0,86.0,86.0,86.0,1,6
0,0.04973073880804303,0.04973073880804303,0.04973073880804303,0.04973073880804303,66.0,66.0,66.0,66.0,0.037559871654373446,0.037559871654373446,0.037559871654373446,0.037559871654373446,0.002472242738575931,0.002472242738575931,0.002472242738575931,0.002472242738575931,6.9776064963055955,6.9776064963055955,6.9776064963055955,6.9776064963055955,91.0,91.0,91.0,91.0,1,2
0,0.03132291750212701,0.03132291750212701,0.03132291750212701,0.03132291750212701,73.0,73.0,73.0,73.0,0.02485836075867333,0.02485836075867333,0.02485836075867333,0.02485836075867333,0.0009807717663941065,0.0009807717663941065,0.0009807717663941065,0.0009807717663941065,5.348997158060666,5.348997158060666,5.348997158060666,5.348997158060666,94.0,94.0,94.0,94.0,1,1
0,0.09254609275221265,0.09254609275221265,0.09254609275221265,0.09254609275221265,60.0,60.0,60.0,60.0,0.07325560956441017,0.07325560956441017,0.07325560956441017,0.07325560956441017,0.008562850229809089,0.008562850229809089,0.008562850229809089,0.008562850229809089,13.903591154170183,13.903591154170183,13.903591154170183,13.903591154170183,82.0,82.0,82.0,82.0,1,5
0,0.01999176402143911,0.01999176402143911,0.01999176402143911,0.01999176402143911,39.0,39.0,39.0,39.0,0.015367966076699742,0.015367966076699742,0.015367966076699742,0.015367966076699742,0.0003992020314700988,0.0003992020314700988,0.0003992020314700988,0.0003992020314700988,2.226570515975154,2.226570515975154,2.226570515975154,2.226570515975154,68.0,68.0,68.0,68.0,1,3
0,0.05316609759715971,0.05316609759715971,0.05316609759715971,0.05316609759715971,45.0,45.0,45.0,45.0,0.03947710447895807,0.03947710447895807,0.03947710447895807,0.03947710447895807,0.002826619233525568,0.002826619233525568,0.002826619233525568,0.002826619233525568,6.149820412416956,6.149820412416956,6.149820412416956,6.149820412416956,92.0,92.0,92.0,92.0,1,2
0,0.013750797874685998,0.013750797874685998,0.013750797874685998,0.013750797874685998,49.0,49.0,49.0,49.0,0.010962460594954412,0.010962460594954412,0.010962460594954412,0.010962460594954412,0.0001890800778105383,0.0001890800778105383,0.0001890800778105383,0.0001890800778105383,1.5959130136034787,1.5959130136034787,1.5959130136034787,1.5959130136034787,101.0,101.0,101.0,101.0,1,4
0,0.0402578686693932,0.0402578686693932,0.0402578686693932,0.0402578686693932,65.0,65.0,65.0,65.0,0.03101478502668831,0.03101478502668831,0.03101478502668831,0.03101478502668831,0.0016205066315492084,0.0016205066315492084,0.0016205066315492084,0.0016205066315492084,6.2811196151459825,6.2811196151459825,6.2811196151459825,6.2811196151459825,108.0,108.0,108.0,108.0,1,6
0,0.029485473271815475,0.029485473271815475,0.029485473271815475,0.029485473271815475,69.0,69.0,69.0,69.0,0.022455194961928923,0.022455194961928923,0.022455194961928923,0.022455194961928923,0.0008693637834775124,0.0008693637834775124,0.0008693637834775124,0.0008693637834775124,5.185682342708191,5.185682342708191,5.185682342708191,5.185682342708191,101.0,101.0,101.0,101.0,1,1
0,0.12381035083064425,0.12381035083064425,0.12381035083064425,0.12381035083064425,68.0,68.0,68.0,68.0,0.09300680609183924,0.09300680609183924,0.09300680609183924,0.09300680609183924,0.015326243636794204,0.015326243636794204,0.015326243636794204,0.015326243636794204,17.686397481494026,17.686397481494026,17.686397481494026,17.686397481494026,89.0,89.0,89.0,89.0,1,5
0,0.1106780475565745,0.1106780475565745,0.1106780475565745,0.1106780475565745,63.0,63.0,63.0,63.0,0.08817623259475624,0.08817623259475624,0.08817623259475624,0.08817623259475624,0.012248007526843551,0.012248007526843551,0.012248007526843551,0.012248007526843551,16.272446817524006,16.272446817524006,16.272446817524006,16.272446817524006,85.0,85.0,85.0,85.0,1,5
0,0.03711809454073026,0.03711809454073026,0.03711809454073026,0.03711809454073026,76.0,76.0,76.0,76.0,0.02849515930908101,0.02849515930908101,0.02849515930908101,0.02849515930908101,0.0013777525778564481,0.0013777525778564481,0.0013777525778564481,0.0013777525778564481,6.574577486985726,6.574577486985726,6.574577486985726,6.574577486985726,105.0,105.0,105.0,105.0,1,1
0,0.04287165100930941,0.04287165100930941,0.04287165100930941,0.04287165100930941,57.0,57.0,57.0,57.0,0.031884719837414366,0.031884719837414366,0.031884719837414366,0.031884719837414366,0.0018378234051446463,0.0018378234051446463,0.0018378234051446463,0.0018378234051446463,5.773656211425106,5.773656211425106,5.773656211425106,5.773656211425106,94.0,94.0,94.0,94.0,1,2
0,0.016083866149681828,0.016083866149681828,0.016083866149681828,0.016083866149681828,46.0,46.0,46.0,46.0,0.013149371673867148,0.013149371673867148,0.013149371673867148,0.013149371673867148,0.00025856297230257525,0.00025856297230257525,0.00025856297230257525,0.00025856297230257525,2.0629305001917935,2.0629305001917935,2.0629305001917935,2.0629305001917935,80.0,80.0,80.0,80.0,1,4
0,0.02523069492772252,0.02523069492772252,0.02523069492772252,0.02523069492772252,66.0,66.0,66.0,66.0,0.019486087838152154,0.019486087838152154,0.019486087838152154,0.019486087838152154,0.0006365876385518509,0.0006365876385518509,0.0006365876385518509,0.0006365876385518509,3.6880979211016953,3.6880979211016953,3.6880979211016953,3.6880979211016953,103.0,103.0,103.0,103.0,1,6
0,0.020835149192992668,0.020835149192992668,0.020835149192992668,0.020835149192992668,53.0,53.0,53.0,53.0,0.01617883826223805,0.01617883826223805,0.01617883826223805,0.01617883826223805,0.00043395744097991844,0.00043395744097991844,0.00043395744097991844,0.00043395744097991844,2.766116576759836,2.766116576759836,2.766116576759836,2.766116576759836,78.0,78.0,78.0,78.0,1,3
0,0.016872062577520133,0.016872062577520133,0.016872062577520133,0.016872062577520133,48.0,48.0,48.0,48.0,0.013661323197724244,0.013661323197724244,0.013661323197724244,0.013661323197724244,0.00028466436918368017,0.00028466436918368017,0.00028466436918368017,0.00028466436918368017,2.069906768821984,2.069906768821984,2.069906768821984,2.069906768821984,98.0,98.0,98.0,98.0,1,4
0,0.03468957018164938,0.03468957018164938,0.03468957018164938,0.03468957018164938,57.0,57.0,57.0,57.0,0.025911186686070013,0.025911186686070013,0.025911186686070013,0.025911186686070013,0.0012007842071979093,0.0012007842071979093,0.0012007842071979093,0.0012007842071979093,4.35414558665002,4.35414558665002,4.35414558665002,4.35414558665002,79.0,79.0,79.0,79.0,1,3
0,0.027388422279609057,0.027388422279609057,0.027388422279609057,0.027388422279609057,64.0,64.0,64.0,64.0,0.020303069486953155,0.020303069486953155,0.020303069486953155,0.020303069486953155,0.0007500883010421714,0.0007500883010421714,0.0007500883010421714,0.0007500883010421714,3.9900483987250324,3.9900483987250324,3.9900483987250324,3.9900483987250324,93.0,93.0,93.0,93.0,1,6
0,0.028264605579214338,0.028264605579214338,0.028264605579214338,0.028264605579214338,71.0,71.0,71.0,71.0,0.02171414767281734,0.02171414767281734,0.02171414767281734,0.02171414767281734,0.0007987798572216498,0.0007987798572216498,0.0007987798572216498,0.0007987798572216498,4.805325962807109,4.805325962807109,4.805325962807109,4.805325962807109,106.0,106.0,106.0,106.0,1,1
0,0.05094534490135553,0.05094534490135553,0.05094534490135553,0.05094534490135553,50.0,50.0,50.0,50.0,0.04063200558740803,0.04063200558740803,0.04063200558740803,0.04063200558740803,0.0025953517562625162,0.0025953517562625162,0.0025953517562625162,0.0025953517562625162,5.8264300685837505,5.8264300685837505,5.8264300685837505,5.8264300685837505,76.0,76.0,76.0,76.0,1,2
0,0.07662860247245624,0.07662860247245624,0.07662860247245624,0.07662860247245624,68.0,68.0,68.0,68.0,0.06227383053110819,0.06227383053110819,0.06227383053110819,0.06227383053110819,0.005871930980510469,0.005871930980510469,0.005871930980510469,0.005871930980510469,11.97157754353946,11.97157754353946,11.97157754353946,11.97157754353946,84.0,84.0,84.0,84.0,1,5
0,0.022936495806718603,0.022936495806718603,0.022936495806718603,0.022936495806718603,53.0,53.0,53.0,53.0,0.017091359082015888,0.017091359082015888,0.017091359082015888,0.017091359082015888,0.0005259688038370446,0.0005259688038370446,0.0005259688038370446,0.0005259688038370446,2.564421937222936,2.564421937222936,2.564421937222936,2.564421937222936,85.0,85.0,85.0,85.0,1,3
0,0.04868402238549952,0.04868402238549952,0.04868402238549952,0.04868402238549952,53.0,53.0,53.0,53.0,0.03542794328498298,0.03542794328498298,0.03542794328498298,0.03542794328498298,0.002369981547199791,0.002369981547199791,0.002369981547199791,0.002369981547199791,6.715634737159138,6.715634737159138,6.715634737159138,6.715634737159138,89.0,89.0,89.0,89.0,1,2
0,0.015260226370519854,0.015260226370519854,0.015260226370519854,0.015260226370519854,47.0,47.0,47.0,47.0,0.012036639344087923,0.012036639344087923,0.012036639344087923,0.012036639344087923,0.00023287319743832107,0.00023287319743832107,0.00023287319743832107,0.00023287319743832107,1.8112857821811663,1.8112857821811663,1.8112857821811663,1.8112857821811663,69.0,69.0,69.0,69.0,1,4
0,0.09704464112510798,0.09704464112510798,0.09704464112510798,0.09704464112510798,60.0,60.0,60.0,60.0,0.07617386535185647,0.07617386535185647,0.07617386535185647,0.07617386535185647,0.009416490503838637,0.009416490503838637,0.009416490503838637,0.009416490503838637,15.034022260435023,15.034022260435023,15.034022260435023,15.034022260435023,89.0,89.0,89.0,89.0,1,5
0,0.02746084789238245,0.02746084789238245,0.02746084789238245,0.02746084789238245,67.0,67.0,67.0,67.0,0.021397311545761147,0.021397311545761147,0.021397311545761147,0.021397311545761147,0.0007537529194105842,0.0007537529194105842,0.0007537529194105842,0.0007537529194105842,3.738848431534806,3.738848431534806,3.738848431534806,3.738848431534806,101.0,101.0,101.0,101.0,1,6
0,0.0256429304541754,0.0256429304541754,0.0256429304541754,0.0256429304541754,80.0,80.0,80.0,80.0,0.01987872610370434,0.01987872610370434,0.01987872610370434,0.01987872610370434,0.0006575598791755916,0.0006575598791755916,0.0006575598791755916,0.0006575598791755916,4.541400961596055,4.541400961596055,4.541400961596055,4.541400961596055,110.0,110.0,110.0,110.0,1,1
0,0.02422103743226045,0.02422103743226045,0.02422103743226045,0.02422103743226045,54.0,54.0,54.0,54.0,0.01761870325348915,0.01761870325348915,0.01761870325348915,0.01761870325348915,0.0005863724267514703,0.0005863724267514703,0.0005863724267514703,0.0005863724267514703,2.4926955292938873,2.4926955292938873,2.4926955292938873,2.4926955292938873,80.0,80.0,80.0,80.0,1,3
0,0.03168942663908592,0.03168942663908592,0.03168942663908592,0.03168942663908592,66.0,66.0,66.0,66.0,0.023258927654527247,0.023258927654527247,0.023258927654527247,0.023258927654527247,0.0010040184910379718,0.0010040184910379718,0.0010040184910379718,0.0010040184910379718,5.060063140304269,5.060063140304269,5.060063140304269,5.060063140304269,101.0,101.0,101.0,101.0,1,1
0,0.028688809953035098,0.028688809953035098,0.028688809953035098,0.028688809953035098,66.0,66.0,66.0,66.0,0.021791067477585066,0.021791067477585066,0.021791067477585066,0.021791067477585066,0.0008229194154872704,0.0008229194154872704,0.0008229194154872704,0.0008229194154872704,4.163514579949236,4.163514579949236,4.163514579949236,4.163514579949236,92.0,92.0,92.0,92.0,1,6
0,0.03293739047599468,0.03293739047599468,0.03293739047599468,0.03293739047599468,36.0,36.0,36.0,36.0,0.024414702275450888,0.024414702275450888,0.024414702275450888,0.024414702275450888,0.001084853235533879,0.001084853235533879,0.001084853235533879,0.001084853235533879,3.0317722318998186,3.0317722318998186,3.0317722318998186,3.0317722318998186,80.0,80.0,80.0,80.0,1,2
0,0.07550530538783688,0.07550530538783688,0.07550530538783688,0.07550530538783688,62.0,62.0,62.0,62.0,0.059301201861794405,0.059301201861794405,0.059301201861794405,0.059301201861794405,0.005700833957345615,0.005700833957345615,0.005700833957345615,0.005700833957345615,11.180987231970047,11.180987231970047,11.180987231970047,11.180987231970047,83.0,83.0,83.0,83.0,1,5
0,0.013435971650473392,0.013435971650473392,0.013435971650473392,0.013435971650473392,51.0,51.0,51.0,51.0,0.010843857852782104,0.010843857852782104,0.010843857852782104,0.010843857852782104,0.0001804236790734462,0.0001804236790734462,0.0001804236790734462,0.0001804236790734462,1.7197880823977778,1.7197880823977778,1.7197880823977778,1.7197880823977778,92.0,92.0,92.0,92.0,1,4
0,0.10799107344097784,0.10799107344097784,0.10799107344097784,0.10799107344097784,54.0,54.0,54.0,54.0,0.08680967692874657,0.08680967692874657,0.08680967692874657,0.08680967692874657,0.011661800547404066,0.011661800547404066,0.011661800547404066,0.011661800547404066,16.29548641755446,16.29548641755446,16.29548641755446,16.29548641755446,78.0,78.0,78.0,78.0,1,5
0,0.03491037784685616,0.03491037784685616,0.03491037784685616,0.03491037784685616,80.0,80.0,80.0,80.0,0.023527582288062922,0.023527582288062922,0.023527582288062922,0.023527582288062922,0.0012185628757289252,0.0012185628757289252,0.0012185628757289252,0.0012185628757289252,5.967418068191726,5.967418068191726,5.967418068191726,5.967418068191726,113.0,113.0,113.0,113.0,1,1
0,0.022146864201031242,0.022146864201031242,0.022146864201031242,0.022146864201031242,54.0,54.0,54.0,54.0,0.01770790063166484,0.01770790063166484,0.01770790063166484,0.01770790063166484,0.000490469373309217,0.000490469373309217,0.000490469373309217,0.000490469373309217,3.1107243698536164,3.1107243698536164,3.1107243698536164,3.1107243698536164,81.0,81.0,81.0,81.0,1,6
0,0.017701331672750904,0.017701331672750904,0.017701331672750904,0.017701331672750904,46.0,46.0,46.0,46.0,0.013948407039735187,0.013948407039735187,0.013948407039735187,0.013948407039735187,0.0003129273003391413,0.0003129273003391413,0.0003129273003391413,0.0003129273003391413,1.9784261443889521,1.9784261443889521,1.9784261443889521,1.9784261443889521,91.0,91.0,91.0,91.0,1,3
0,0.013714110307373878,0.013714110307373878,0.013714110307373878,0.013714110307373878,41.0,41.0,41.0,41.0,0.010869682282346305,0.010869682282346305,0.010869682282346305,0.010869682282346305,0.00018801173372538327,0.00018801173372538327,0.00018801173372538327,0.00018801173372538327,1.4994623816641584,1.4994623816641584,1.4994623816641584,1.4994623816641584,89.0,89.0,89.0,89.0,1,4
0,0.030777172951263657,0.030777172951263657,0.030777172951263657,0.030777172951263657,53.0,53.0,53.0,53.0,0.024276869373871947,0.024276869373871947,0.024276869373871947,0.024276869373871947,0.0009462419162955065,0.0009462419162955065,0.0009462419162955065,0.0009462419162955065,4.048098025406291,4.048098025406291,4.048098025406291,4.048098025406291,83.0,83.0,83.0,83.0,1,2
0,0.021603756314600816,0.021603756314600816,0.021603756314600816,0.021603756314600816,49.0,49.0,49.0,49.0,0.017682642259264077,0.017682642259264077,0.017682642259264077,0.017682642259264077,0.00046651399348026577,0.00046651399348026577,0.00046651399348026577,0.00046651399348026577,2.531892466292818,2.531892466292818,2.531892466292818,2.531892466292818,73.0,73.0,73.0,73.0,1,3
0,0.13464875750921423,0.13464875750921423,0.13464875750921423,0.13464875750921423,63.0,63.0,63.0,63.0,0.10457127659203863,0.10457127659203863,0.10457127659203863,0.10457127659203863,0.018125338199648993,0.018125338199648993,0.018125338199648993,0.018125338199648993,20.144779169954816,20.144779169954816,20.144779169954816,20.144779169954816,79.0,79.0,79.0,79.0,1,5
0,0.028604799861098783,0.028604799861098783,0.028604799861098783,0.028604799861098783,41.0,41.0,41.0,41.0,0.022428253305029955,0.022428253305029955,0.022428253305029955,0.022428253305029955,0.000818055083182522,0.000818055083182522,0.000818055083182522,0.000818055083182522,3.162056169238859,3.162056169238859,3.162056169238859,3.162056169238859,78.0,78.0,78.0,78.0,1,4
0,0.04954471720900779,0.04954471720900779,0.04954471720900779,0.04954471720900779,55.0,55.0,55.0,55.0,0.03940503167278555,0.03940503167278555,0.03940503167278555,0.03940503167278555,0.0024546753773342445,0.0024546753773342445,0.0024546753773342445,0.0024546753773342445,6.517897220747443,6.517897220747443,6.517897220747443,6.517897220747443,89.0,89.0,89.0,89.0,1,2
0,0.04666096016437473,0.04666096016437473,0.04666096016437473,0.04666096016437473,75.0,75.0,75.0,75.0,0.03467785756624608,0.03467785756624608,0.03467785756624608,0.03467785756624608,0.0021769306277997984,0.0021769306277997984,0.0021769306277997984,0.0021769306277997984,7.642100543581801,7.642100543581801,7.642100543581801,7.642100543581801,104.0,104.0,104.0,104.0,1,1
0,0.030792895802070373,0.030792895802070373,0.030792895802070373,0.030792895802070373,63.0,63.0,63.0,63.0,0.02398181685699906,0.02398181685699906,0.02398181685699906,0.02398181685699906,0.0009478791395399829,0.0009478791395399829,0.0009478791395399829,0.0009478791395399829,4.60354762808044,4.60354762808044,4.60354762808044,4.60354762808044,93.0,93.0,93.0,93.0,1,6
0,0.02391132199022694,0.02391132199022694,0.02391132199022694,0.02391132199022694,50.0,50.0,50.0,50.0,0.01889749921488538,0.01889749921488538,0.01889749921488538,0.01889749921488538,0.0005713190937663873,0.0005713190937663873,0.0005713190937663873,0.0005713190937663873,2.8537838996408356,2.8537838996408356,2.8537838996408356,2.8537838996408356,86.0,86.0,86.0,86.0,1,3
0,0.0994579301979515,0.0994579301979515,0.0994579301979515,0.0994579301979515,76.0,76.0,76.0,76.0,0.07503864182365064,0.07503864182365064,0.07503864182365064,0.07503864182365064,0.009891044885036348,0.009891044885036348,0.009891044885036348,0.009891044885036348,16.296471704228786,16.296471704228786,16.296471704228786,16.296471704228786,101.0,101.0,101.0,101.0,1,5
0,0.027411832399273795,0.027411832399273795,0.027411832399273795,0.027411832399273795,51.0,51.0,51.0,51.0,0.019790195110229693,0.019790195110229693,0.019790195110229693,0.019790195110229693,0.0007513255763592432,0.0007513255763592432,0.0007513255763592432,0.0007513255763592432,3.4828416371358015,3.4828416371358015,3.4828416371358015,3.4828416371358015,84.0,84.0,84.0,84.0,1,1
0,0.04776111260886448,0.04776111260886448,0.04776111260886448,0.04776111260886448,56.0,56.0,56.0,56.0,0.037432256470212845,0.037432256470212845,0.037432256470212845,0.037432256470212845,0.0022810871728151734,0.0022810871728151734,0.0022810871728151734,0.0022810871728151734,6.458905210017203,6.458905210017203,6.458905210017203,6.458905210017203,87.0,87.0,87.0,87.0,1,2
0,0.04519616371729008,0.04519616371729008,0.04519616371729008,0.04519616371729008,71.0,71.0,71.0,71.0,0.03372556525976425,0.03372556525976425,0.03372556525976425,0.03372556525976425,0.002041931454300773,0.002041931454300773,0.002041931454300773,0.002041931454300773,7.084076849755792,7.084076849755792,7.084076849755792,7.084076849755792,101.0,101.0,101.0,101.0,1,6
0,0.019275884485956647,0.019275884485956647,0.019275884485956647,0.019275884485956647,50.0,50.0,50.0,50.0,0.015303850968071443,0.015303850968071443,0.015303850968071443,0.015303850968071443,0.0003714866099747197,0.0003714866099747197,0.0003714866099747197,0.0003714866099747197,2.387596015834446,2.387596015834446,2.387596015834446,2.387596015834446,77.0,77.0,77.0,77.0,1,4
0,0.042924375861586116,0.042924375861586116,0.042924375861586116,0.042924375861586116,58.0,58.0,58.0,58.0,0.032925056413182226,0.032925056413182226,0.032925056413182226,0.032925056413182226,0.0018412961913934923,0.0018412961913934923,0.0018412961913934923,0.0018412961913934923,6.059784498705758,6.059784498705758,6.059784498705758,6.059784498705758,84.0,84.0,84.0,84.0,1,2
0,0.01643776483876266,0.01643776483876266,0.01643776483876266,0.01643776483876266,61.0,61.0,61.0,61.0,0.012785618010649678,0.012785618010649678,0.012785618010649678,0.012785618010649678,0.0002701980407042648,0.0002701980407042648,0.0002701980407042648,0.0002701980407042648,2.5197369881069704,2.5197369881069704,2.5197369881069704,2.5197369881069704,102.0,102.0,102.0,102.0,1,3
0,0.012461114949000394,0.012461114949000394,0.012461114949000394,0.012461114949000394,52.0,52.0,52.0,52.0,0.00941472204384824,0.00941472204384824,0.00941472204384824,0.00941472204384824,0.00015508948777141204,0.00015508948777141204,0.00015508948777141204,0.00015508948777141204,1.55670767070694,1.55670767070694,1.55670767070694,1.55670767070694,92.0,92.0,92.0,92.0,1,4
0,0.08574737377429294,0.08574737377429294,0.08574737377429294,0.08574737377429294,59.0,59.0,59.0,59.0,0.06722542891879155,0.06722542891879155,0.06722542891879155,0.06722542891879155,0.007348391798584252,0.007348391798584252,0.007348391798584252,0.007348391798584252,12.996200946099044,12.996200946099044,12.996200946099044,12.996200946099044,79.0,79.0,79.0,79.0,1,5
0,0.035922378217365325,0.035922378217365325,0.035922378217365325,0.035922378217365325,79.0,79.0,79.0,79.0,0.02797376202978767,0.02797376202978767,0.02797376202978767,0.02797376202978767,0.0012903801471524864,0.0012903801471524864,0.0012903801471524864,0.0012903801471524864,6.894506307638684,6.894506307638684,6.894506307638684,6.894506307638684,111.0,111.0,111.0,111.0,1,1
0,0.026445048605457874,0.026445048605457874,0.026445048605457874,0.026445048605457874,48.0,48.0,48.0,48.0,0.017814773290520797,0.017814773290520797,0.017814773290520797,0.017814773290520797,0.0006966996363091026,0.0006966996363091026,0.0006966996363091026,0.0006966996363091026,2.8123660982359233,2.8123660982359233,2.8123660982359233,2.8123660982359233,83.0,83.0,83.0,83.0,1,6
0,0.11217070112467033,0.11217070112467033,0.11217070112467033,0.11217070112467033,67.0,67.0,67.0,67.0,0.08493373905958183,0.08493373905958183,0.08493373905958183,0.08493373905958183,0.01258222015733051,0.01258222015733051,0.01258222015733051,0.01258222015733051,17.451042116963883,17.451042116963883,17.451042116963883,17.451042116963883,91.0,91.0,91.0,91.0,1,5
0,0.02986283382819533,0.02986283382819533,0.02986283382819533,0.02986283382819533,62.0,62.0,62.0,62.0,0.02270805627400718,0.02270805627400718,0.02270805627400718,0.02270805627400718,0.000891784418271377,0.000891784418271377,0.000891784418271377,0.000891784418271377,4.307680724563909,4.307680724563909,4.307680724563909,4.307680724563909,98.0,98.0,98.0,98.0,1,6
0,0.028513133914624383,0.028513133914624383,0.028513133914624383,0.028513133914624383,68.0,68.0,68.0,68.0,0.020682685851619354,0.020682685851619354,0.020682685851619354,0.020682685851619354,0.0008124054843740982,0.0008124054843740982,0.0008124054843740982,0.0008124054843740982,4.262371009838743,4.262371009838743,4.262371009838743,4.262371009838743,101.0,101.0,101.0,101.0,1,3
0,0.015440760000700025,0.015440760000700025,0.015440760000700025,0.015440760000700025,41.0,41.0,41.0,41.0,0.011831125026931582,0.011831125026931582,0.011831125026931582,0.011831125026931582,0.00023831091327520626,0.00023831091327520626,0.00023831091327520626,0.00023831091327520626,1.6955190034141014,1.6955190034141014,1.6955190034141014,1.6955190034141014,80.0,80.0,80.0,80.0,1,4
0,0.05186871500341185,0.05186871500341185,0.05186871500341185,0.05186871500341185,59.0,59.0,59.0,59.0,0.040013729964889944,0.040013729964889944,0.040013729964889944,0.040013729964889944,0.0026901604948032904,0.0026901604948032904,0.0026901604948032904,0.0026901604948032904,7.254801017311726,7.254801017311726,7.254801017311726,7.254801017311726,95.0,95.0,95.0,95.0,1,2
0,0.03326957387727533,0.03326957387727533,0.03326957387727533,0.03326957387727533,77.0,77.0,77.0,77.0,0.024739907661690687,0.024739907661690687,0.024739907661690687,0.024739907661690687,0.0011066558312391255,0.0011066558312391255,0.0011066558312391255,0.0011066558312391255,5.741416299299871,5.741416299299871,5.741416299299871,5.741416299299871,107.0,107.0,107.0,107.0,1,1
0,0.10452812090977089,0.10452812090977089,0.10452812090977089,0.10452812090977089,64.0,64.0,64.0,64.0,0.08213312835529553,0.08213312835529553,0.08213312835529553,0.08213312835529553,0.010925496734166016,0.010925496734166016,0.010925496734166016,0.010925496734166016,14.778459660950023,14.778459660950023,14.778459660950023,14.778459660950023,84.0,84.0,84.0,84.0,1,5
0,0.014336572753979886,0.014336572753979886,0.014336572753979886,0.014336572753979886,38.0,38.0,38.0,38.0,0.011421386429729284,0.011421386429729284,0.011421386429729284,0.011421386429729284,0.0002054206445852938,0.0002054206445852938,0.0002054206445852938,0.0002054206445852938,1.6881929620841345,1.6881929620841345,1.6881929620841345,1.6881929620841345,83.0,83.0,83.0,83.0,1,6
0,0.03534960824726484,0.03534960824726484,0.03534960824726484,0.03534960824726484,68.0,68.0,68.0,68.0,0.02770269715824777,0.02770269715824777,0.02770269715824777,0.02770269715824777,0.001249247187398633,0.001249247187398633,0.001249247187398633,0.001249247187398633,6.526682709350183,6.526682709350183,6.526682709350183,6.526682709350183,106.0,106.0,106.0,106.0,1,1
0,0.02135769442232997,0.02135769442232997,0.02135769442232997,0.02135769442232997,38.0,38.0,38.0,38.0,0.016249839237259887,0.016249839237259887,0.016249839237259887,0.016249839237259887,0.0004555709790352246,0.0004555709790352246,0.0004555709790352246,0.0004555709790352246,2.160244138893777,2.160244138893777,2.160244138893777,2.160244138893777,83.0,83.0,83.0,83.0,1,3
0,0.011848201281014662,0.011848201281014662,0.011848201281014662,0.011848201281014662,44.0,44.0,44.0,44.0,0.009297042870637318,0.009297042870637318,0.009297042870637318,0.009297042870637318,0.0001402835919350541,0.0001402835919350541,0.0001402835919350541,0.0001402835919350541,1.4253271234075495,1.4253271234075495,1.4253271234075495,1.4253271234075495,87.0,87.0,87.0,87.0,1,4
0,0.035881089998029574,0.035881089998029574,0.035881089998029574,0.035881089998029574,49.0,49.0,49.0,49.0,0.025488077145899096,0.025488077145899096,0.025488077145899096,0.025488077145899096,0.0012874145528963853,0.0012874145528963853,0.0012874145528963853,0.0012874145528963853,4.516842038826809,4.516842038826809,4.516842038826809,4.516842038826809,100.0,100.0,100.0,100.0,1,2
0,0.01815845987601561,0.01815845987601561,0.01815845987601561,0.01815845987601561,40.0,40.0,40.0,40.0,0.014630643198697424,0.014630643198697424,0.014630643198697424,0.014630643198697424,0.00032969252924062667,0.00032969252924062667,0.00032969252924062667,0.00032969252924062667,1.9618793715059137,1.9618793715059137,1.9618793715059137,1.9618793715059137,75.0,75.0,75.0,75.0,1,4
0,0.04857441542940094,0.04857441542940094,0.04857441542940094,0.04857441542940094,52.0,52.0,52.0,52.0,0.036754452671550225,0.036754452671550225,0.036754452671550225,0.036754452671550225,0.0023589475863838084,0.0023589475863838084,0.0023589475863838084,0.0023589475863838084,6.919725978044118,6.919725978044118,6.919725978044118,6.919725978044118,99.0,99.0,99.0,99.0,1,2
0,0.023209684659734,0.023209684659734,0.023209684659734,0.023209684659734,47.0,47.0,47.0,47.0,0.018174739243222934,0.018174739243222934,0.018174739243222934,0.018174739243222934,0.0005379278065883188,0.0005379278065883188,0.0005379278065883188,0.0005379278065883188,2.8158041397237223,2.8158041397237223,2.8158041397237223,2.8158041397237223,86.0,86.0,86.0,86.0,1,3
0,0.05273010353923595,0.05273010353923595,0.05273010353923595,0.05273010353923595,70.0,70.0,70.0,70.0,0.0385635072070619,0.0385635072070619,0.0385635072070619,0.0385635072070619,0.002780355772192905,0.002780355772192905,0.002780355772192905,0.002780355772192905,8.474842009548121,8.474842009548121,8.474842009548121,8.474842009548121,100.0,100.0,100.0,100.0,1,1
0,0.0504394627023845,0.0504394627023845,0.0504394627023845,0.0504394627023845,66.0,66.0,66.0,66.0,0.03726661234807968,0.03726661234807968,0.03726661234807968,0.03726661234807968,0.0025441366174228488,0.0025441366174228488,0.0025441366174228488,0.0025441366174228488,7.987843246465906,7.987843246465906,7.987843246465906,7.987843246465906,98.0,98.0,98.0,98.0,1,6
0,0.09747090838936634,0.09747090838936634,0.09747090838936634,0.09747090838936634,58.0,58.0,58.0,58.0,0.07479244984884394,0.07479244984884394,0.07479244984884394,0.07479244984884394,0.00949999830862167,0.00949999830862167,0.00949999830862167,0.00949999830862167,15.569482711421207,15.569482711421207,15.569482711421207,15.569482711421207,90.0,90.0,90.0,90.0,1,5
0,0.07788789818201361,0.07788789818201361,0.07788789818201361,0.07788789818201361,65.0,65.0,65.0,65.0,0.0638944206623182,0.0638944206623182,0.0638944206623182,0.0638944206623182,0.006061857338196462,0.006061857338196462,0.006061857338196462,0.006061857338196462,13.072951614005952,13.072951614005952,13.072951614005952,13.072951614005952,93.0,93.0,93.0,93.0,1,5
0,0.04398827746513151,0.04398827746513151,0.04398827746513151,0.04398827746513151,66.0,66.0,66.0,66.0,0.03416668857335828,0.03416668857335828,0.03416668857335828,0.03416668857335828,0.00193431501848637,0.00193431501848637,0.00193431501848637,0.00193431501848637,7.132611438453175,7.132611438453175,7.132611438453175,7.132611438453175,107.0,107.0,107.0,107.0,1,6
0,0.0651263465102972,0.0651263465102972,0.0651263465102972,0.0651263465102972,57.0,57.0,57.0,57.0,0.05006002515289318,0.05006002515289318,0.05006002515289318,0.05006002515289318,0.004241047962238265,0.004241047962238265,0.004241047962238265,0.004241047962238265,9.141704190238865,9.141704190238865,9.141704190238865,9.141704190238865,95.0,95.0,95.0,95.0,1,2
0,0.029683659097157894,0.029683659097157894,0.029683659097157894,0.029683659097157894,55.0,55.0,55.0,55.0,0.023374799887527838,0.023374799887527838,0.023374799887527838,0.023374799887527838,0.0008810650511122928,0.0008810650511122928,0.0008810650511122928,0.0008810650511122928,3.8002953442510474,3.8002953442510474,3.8002953442510474,3.8002953442510474,83.0,83.0,83.0,83.0,1,3
0,0.015624401926174139,0.015624401926174139,0.015624401926174139,0.015624401926174139,57.0,57.0,57.0,57.0,0.01214444546088941,0.01214444546088941,0.01214444546088941,0.01214444546088941,0.0002440999782873187,0.0002440999782873187,0.0002440999782873187,0.0002440999782873187,1.9574699776574578,1.9574699776574578,1.9574699776574578,1.9574699776574578,93.0,93.0,93.0,93.0,1,4
0,0.047923679978620286,0.047923679978620286,0.047923679978620286,0.047923679978620286,87.0,87.0,87.0,87.0,0.03724033696219403,0.03724033696219403,0.03724033696219403,0.03724033696219403,0.0022966106665653894,0.0022966106665653894,0.0022966106665653894,0.0022966106665653894,9.458307553099061,9.458307553099061,9.458307553099061,9.458307553099061,111.0,111.0,111.0,111.0,1,1
0,0.10330727752578656,0.10330727752578656,0.10330727752578656,0.10330727752578656,66.0,66.0,66.0,66.0,0.08294598841233959,0.08294598841233959,0.08294598841233959,0.08294598841233959,0.010671435799207424,0.010671435799207424,0.010671435799207424,0.010671435799207424,17.09781191211301,17.09781191211301,17.09781191211301,17.09781191211301,91.0,91.0,91.0,91.0,1,5
0,0.048652962112156695,0.048652962112156695,0.048652962112156695,0.048652962112156695,62.0,62.0,62.0,62.0,0.036841812855844626,0.036841812855844626,0.036841812855844626,0.036841812855844626,0.0023669134585654577,0.0023669134585654577,0.0023669134585654577,0.0023669134585654577,7.717504825415839,7.717504825415839,7.717504825415839,7.717504825415839,93.0,93.0,93.0,93.0,1,6
0,0.01699609051326493,0.01699609051326493,0.01699609051326493,0.01699609051326493,51.0,51.0,51.0,51.0,0.01392192375066946,0.01392192375066946,0.01392192375066946,0.01392192375066946,0.0002888173009047772,0.0002888173009047772,0.0002888173009047772,0.0002888173009047772,2.305094368800655,2.305094368800655,2.305094368800655,2.305094368800655,75.0,75.0,75.0,75.0,1,4
0,0.04887598521253297,0.04887598521253297,0.04887598521253297,0.04887598521253297,62.0,62.0,62.0,62.0,0.03722057852251512,0.03722057852251512,0.03722057852251512,0.03722057852251512,0.0023885670897996077,0.0023885670897996077,0.0023885670897996077,0.0023885670897996077,6.78326533809788,6.78326533809788,6.78326533809788,6.78326533809788,84.0,84.0,84.0,84.0,1,2
0,0.04473404378818799,0.04473404378818799,0.04473404378818799,0.04473404378818799,66.0,66.0,66.0,66.0,0.03460268593808516,0.03460268593808516,0.03460268593808516,0.03460268593808516,0.0020009932549859095,0.0020009932549859095,0.0020009932549859095,0.0020009932549859095,6.984355677358588,6.984355677358588,6.984355677358588,6.984355677358588,109.0,109.0,109.0,109.0,1,1
0,0.02468574185061418,0.02468574185061418,0.02468574185061418,0.02468574185061418,53.0,53.0,53.0,53.0,0.01872637745815726,0.01872637745815726,0.01872637745815726,0.01872637745815726,0.0006083220627734609,0.0006083220627734609,0.0006083220627734609,0.0006083220627734609,3.212523332555227,3.212523332555227,3.212523332555227,3.212523332555227,106.0,106.0,106.0,106.0,1,3
0,0.12508464287056895,0.12508464287056895,0.12508464287056895,0.12508464287056895,59.0,59.0,59.0,59.0,0.09725727435944773,0.09725727435944773,0.09725727435944773,0.09725727435944773,0.015644702998564183,0.015644702998564183,0.015644702998564183,0.015644702998564183,18.803660575622104,18.803660575622104,18.803660575622104,18.803660575622104,88.0,88.0,88.0,88.0,1,5
0,0.0636109418566623,0.0636109418566623,0.0636109418566623,0.0636109418566623,54.0,54.0,54.0,54.0,0.04672328974809157,0.04672328974809157,0.04672328974809157,0.04672328974809157,0.004046178357635893,0.004046178357635893,0.004046178357635893,0.004046178357635893,7.87681310906521,7.87681310906521,7.87681310906521,7.87681310906521,87.0,87.0,87.0,87.0,1,2
0,0.03926295280474132,0.03926295280474132,0.03926295280474132,0.03926295280474132,76.0,76.0,76.0,76.0,0.02864812959432046,0.02864812959432046,0.02864812959432046,0.02864812959432046,0.0015415291152729316,0.0015415291152729316,0.0015415291152729316,0.0015415291152729316,6.52451772206795,6.52451772206795,6.52451772206795,6.52451772206795,110.0,110.0,110.0,110.0,1,1
0,0.02790954675903647,0.02790954675903647,0.02790954675903647,0.02790954675903647,45.0,45.0,45.0,45.0,0.021485812648931644,0.021485812648931644,0.021485812648931644,0.021485812648931644,0.0007789308502575803,0.0007789308502575803,0.0007789308502575803,0.0007789308502575803,3.3895000739488568,3.3895000739488568,3.3895000739488568,3.3895000739488568,89.0,89.0,89.0,89.0,1,3
0,0.04755828290044221,0.04755828290044221,0.04755828290044221,0.04755828290044221,53.0,53.0,53.0,53.0,0.036630174975117,0.036630174975117,0.036630174975117,0.036630174975117,0.002261268385525625,0.002261268385525625,0.002261268385525625,0.002261268385525625,6.015205076150511,6.015205076150511,6.015205076150511,6.015205076150511,92.0,92.0,92.0,92.0,1,6
0,0.02323974545011475,0.02323974545011475,0.02323974545011475,0.02323974545011475,41.0,41.0,41.0,41.0,0.016666772842951642,0.016666772842951642,0.016666772842951642,0.016666772842951642,0.0005400802797697931,0.0005400802797697931,0.0005400802797697931,0.0005400802797697931,2.2749549110457523,2.2749549110457523,2.2749549110457523,2.2749549110457523,78.0,78.0,78.0,78.0,1,4
0,0.033736401699631983,0.033736401699631983,0.033736401699631983,0.033736401699631983,35.0,35.0,35.0,35.0,0.026985027136283823,0.026985027136283823,0.026985027136283823,0.026985027136283823,0.001137005542771727,0.001137005542771727,0.001137005542771727,0.001137005542771727,3.35655171642316,3.35655171642316,3.35655171642316,3.35655171642316,85.0,85.0,85.0,85.0,1,2
0,0.046925322037425325,0.046925322037425325,0.046925322037425325,0.046925322037425325,77.0,77.0,77.0,77.0,0.033886835283210945,0.033886835283210945,0.033886835283210945,0.033886835283210945,0.002201956989170953,0.002201956989170953,0.002201956989170953,0.002201956989170953,7.970016916535087,7.970016916535087,7.970016916535087,7.970016916535087,98.0,98.0,98.0,98.0,1,6
0,0.037047789835377896,0.037047789835377896,0.037047789835377896,0.037047789835377896,74.0,74.0,74.0,74.0,0.028545649332444675,0.028545649332444675,0.028545649332444675,0.028545649332444675,0.0013724655633649222,0.0013724655633649222,0.0013724655633649222,0.0013724655633649222,6.787687382379648,6.787687382379648,6.787687382379648,6.787687382379648,110.0,110.0,110.0,110.0,1,1
0,0.021846837552672888,0.021846837552672888,0.021846837552672888,0.021846837552672888,56.0,56.0,56.0,56.0,0.016754492171017397,0.016754492171017397,0.016754492171017397,0.016754492171017397,0.00047685470906595626,0.00047685470906595626,0.00047685470906595626,0.00047685470906595626,2.7476819011880096,2.7476819011880096,2.7476819011880096,2.7476819011880096,84.0,84.0,84.0,84.0,1,3
0,0.03117029383899002,0.03117029383899002,0.03117029383899002,0.03117029383899002,69.0,69.0,69.0,69.0,0.0219710131300162,0.0219710131300162,0.0219710131300162,0.0219710131300162,0.0009715269504102796,0.0009715269504102796,0.0009715269504102796,0.0009715269504102796,4.845950653057945,4.845950653057945,4.845950653057945,4.845950653057945,106.0,106.0,106.0,106.0,1,4
0,0.09787188343704746,0.09787188343704746,0.09787188343704746,0.09787188343704746,66.0,66.0,66.0,66.0,0.07751808237228841,0.07751808237228841,0.07751808237228841,0.07751808237228841,0.009577511793761331,0.009577511793761331,0.009577511793761331,0.009577511793761331,16.02378833639706,16.02378833639706,16.02378833639706,16.02378833639706,86.0,86.0,86.0,86.0,1,5
0,0.032495224667964034,0.032495224667964034,0.032495224667964034,0.032495224667964034,65.0,65.0,65.0,65.0,0.026512086500376685,0.026512086500376685,0.026512086500376685,0.026512086500376685,0.0010557148508841116,0.0010557148508841116,0.0010557148508841116,0.0010557148508841116,4.552782982067279,4.552782982067279,4.552782982067279,4.552782982067279,101.0,101.0,101.0,101.0,1,1
0,0.1291104167144955,0.1291104167144955,0.1291104167144955,0.1291104167144955,72.0,72.0,72.0,72.0,0.09989821482030205,0.09989821482030205,0.09989821482030205,0.09989821482030205,0.01666929865407009,0.01666929865407009,0.01666929865407009,0.01666929865407009,20.880475854373916,20.880475854373916,20.880475854373916,20.880475854373916,87.0,87.0,87.0,87.0,1,5
0,0.03906065989399987,0.03906065989399987,0.03906065989399987,0.03906065989399987,58.0,58.0,58.0,58.0,0.030675222100274305,0.030675222100274305,0.030675222100274305,0.030675222100274305,0.0015252425964242644,0.0015252425964242644,0.0015252425964242644,0.0015252425964242644,5.207634101426452,5.207634101426452,5.207634101426452,5.207634101426452,89.0,89.0,89.0,89.0,1,6
0,0.021222168144377752,0.021222168144377752,0.021222168144377752,0.021222168144377752,53.0,53.0,53.0,53.0,0.01680419441384825,0.01680419441384825,0.01680419441384825,0.01680419441384825,0.00045009350815268057,0.00045009350815268057,0.00045009350815268057,0.00045009350815268057,2.8621294064962353,2.8621294064962353,2.8621294064962353,2.8621294064962353,94.0,94.0,94.0,94.0,1,3
0,0.051639891488925754,0.051639891488925754,0.051639891488925754,0.051639891488925754,62.0,62.0,62.0,62.0,0.03965575740363064,0.03965575740363064,0.03965575740363064,0.03965575740363064,0.0026654014525635625,0.0026654014525635625,0.0026654014525635625,0.0026654014525635625,7.388668103277329,7.388668103277329,7.388668103277329,7.388668103277329,95.0,95.0,95.0,95.0,1,2
0,0.021650177745116878,0.021650177745116878,0.021650177745116878,0.021650177745116878,52.0,52.0,52.0,52.0,0.016724426180762652,0.016724426180762652,0.016724426180762652,0.016724426180762652,0.00046863802897198216,0.00046863802897198216,0.00046863802897198216,0.00046863802897198216,2.932777132936044,2.932777132936044,2.932777132936044,2.932777132936044,91.0,91.0,91.0,91.0,1,4
0,0.02399144309171466,0.02399144309171466,0.02399144309171466,0.02399144309171466,67.0,67.0,67.0,67.0,0.01884986619876304,0.01884986619876304,0.01884986619876304,0.01884986619876304,0.0005751154437451438,0.0005751154437451438,0.0005751154437451438,0.0005751154437451438,3.3543807250831215,3.3543807250831215,3.3543807250831215,3.3543807250831215,101.0,101.0,101.0,101.0,1,6
0,0.04005857690963256,0.04005857690963256,0.04005857690963256,0.04005857690963256,61.0,61.0,61.0,61.0,0.03172196796325096,0.03172196796325096,0.03172196796325096,0.03172196796325096,0.0016041769021455355,0.0016041769021455355,0.0016041769021455355,0.0016041769021455355,5.778739025192234,5.778739025192234,5.778739025192234,5.778739025192234,97.0,97.0,97.0,97.0,1,2
0,0.1159887614319114,0.1159887614319114,0.1159887614319114,0.1159887614319114,76.0,76.0,76.0,76.0,0.08809301364553923,0.08809301364553923,0.08809301364553923,0.08809301364553923,0.013452058560311281,0.013452058560311281,0.013452058560311281,0.013452058560311281,19.550478299024366,19.550478299024366,19.550478299024366,19.550478299024366,89.0,89.0,89.0,89.0,1,5
0,0.02882298363674357,0.02882298363674357,0.02882298363674357,0.02882298363674357,80.0,80.0,80.0,80.0,0.02255333555008361,0.02255333555008361,0.02255333555008361,0.02255333555008361,0.0008307306813854989,0.0008307306813854989,0.0008307306813854989,0.0008307306813854989,4.88824332165386,4.88824332165386,4.88824332165386,4.88824332165386,97.0,97.0,97.0,97.0,1,1
0,0.020396399897635205,0.020396399897635205,0.020396399897635205,0.020396399897635205,60.0,60.0,60.0,60.0,0.016105441415200362,0.016105441415200362,0.016105441415200362,0.016105441415200362,0.0004159134233767638,0.0004159134233767638,0.0004159134233767638,0.0004159134233767638,2.90639356054632,2.90639356054632,2.90639356054632,2.90639356054632,92.0,92.0,92.0,92.0,1,4
0,0.03246611559903722,0.03246611559903722,0.03246611559903722,0.03246611559903722,60.0,60.0,60.0,60.0,0.023170575759237443,0.023170575759237443,0.023170575759237443,0.023170575759237443,0.0010540071046232149,0.0010540071046232149,0.0010540071046232149,0.0010540071046232149,3.9165661694798617,3.9165661694798617,3.9165661694798617,3.9165661694798617,88.0,88.0,88.0,88.0,1,3
0,0.03171973691799605,0.03171973691799605,0.03171973691799605,0.03171973691799605,58.0,58.0,58.0,58.0,0.02506481175444282,0.02506481175444282,0.02506481175444282,0.02506481175444282,0.0010059137633249983,0.0010059137633249983,0.0010059137633249983,0.0010059137633249983,4.273166851051691,4.273166851051691,4.273166851051691,4.273166851051691,96.0,96.0,96.0,96.0,1,1
0,0.013239426043174912,0.013239426043174912,0.013239426043174912,0.013239426043174912,64.0,64.0,64.0,64.0,0.010088656081930339,0.010088656081930339,0.010088656081930339,0.010088656081930339,0.00017528077405798523,0.00017528077405798523,0.00017528077405798523,0.00017528077405798523,1.9723966941085938,1.9723966941085938,1.9723966941085938,1.9723966941085938,102.0,102.0,102.0,102.0,1,4
0,0.024332074997911048,0.024332074997911048,0.024332074997911048,0.024332074997911048,70.0,70.0,70.0,70.0,0.018802445097036272,0.018802445097036272,0.018802445097036272,0.018802445097036272,0.0005919641149493237,0.0005919641149493237,0.0005919641149493237,0.0005919641149493237,4.038898877702627,4.038898877702627,4.038898877702627,4.038898877702627,109.0,109.0,109.0,109.0,1,6
0,0.06702105004119893,0.06702105004119893,0.06702105004119893,0.06702105004119893,83.0,83.0,83.0,83.0,0.05082770620909324,0.05082770620909324,0.05082770620909324,0.05082770620909324,0.004491819843643289,0.004491819843643289,0.004491819843643289,0.004491819843643289,11.901751738553854,11.901751738553854,11.901751738553854,11.901751738553854,101.0,101.0,101.0,101.0,1,5
0,0.03240971343454519,0.03240971343454519,0.03240971343454519,0.03240971343454519,52.0,52.0,52.0,52.0,0.025764157456156105,0.025764157456156105,0.025764157456156105,0.025764157456156105,0.001050250195078088,0.001050250195078088,0.001050250195078088,0.001050250195078088,4.261358635545205,4.261358635545205,4.261358635545205,4.261358635545205,70.0,70.0,70.0,70.0,1,3
0,0.037732046935869235,0.037732046935869235,0.037732046935869235,0.037732046935869235,65.0,65.0,65.0,65.0,0.028740958473572366,0.028740958473572366,0.028740958473572366,0.028740958473572366,0.0014233974069969423,0.0014233974069969423,0.0014233974069969423,0.0014233974069969423,5.435335161060525,5.435335161060525,5.435335161060525,5.435335161060525,92.0,92.0,92.0,92.0,1,2
0,0.022298076275853798,0.022298076275853798,0.022298076275853798,0.022298076275853798,52.0,52.0,52.0,52.0,0.01678483332975704,0.01678483332975704,0.01678483332975704,0.01678483332975704,0.0004970403929106973,0.0004970403929106973,0.0004970403929106973,0.0004970403929106973,2.867442041417287,2.867442041417287,2.867442041417287,2.867442041417287,91.0,91.0,91.0,91.0,1,3
0,0.013125282641185738,0.013125282641185738,0.013125282641185738,0.013125282641185738,60.0,60.0,60.0,60.0,0.009963255959041217,0.009963255959041217,0.009963255959041217,0.009963255959041217,0.00017227247920592194,0.00017227247920592194,0.00017227247920592194,0.00017227247920592194,1.6388356000552444,1.6388356000552444,1.6388356000552444,1.6388356000552444,86.0,86.0,86.0,86.0,1,4
0,0.10501284846514777,0.10501284846514777,0.10501284846514777,0.10501284846514777,66.0,66.0,66.0,66.0,0.07606682629051774,0.07606682629051774,0.07606682629051774,0.07606682629051774,0.0110127762593534,0.0110127762593534,0.0110127762593534,0.0110127762593534,16.48063113925174,16.48063113925174,16.48063113925174,16.48063113925174,100.0,100.0,100.0,100.0,1,5
0,0.014263302354000055,0.014263302354000055,0.014263302354000055,0.014263302354000055,68.0,68.0,68.0,68.0,0.010946350630074932,0.010946350630074932,0.010946350630074932,0.010946350630074932,0.00020343286444019185,0.00020343286444019185,0.00020343286444019185,0.00020343286444019185,2.2607372039174187,2.2607372039174187,2.2607372039174187,2.2607372039174187,105.0,105.0,105.0,105.0,1,6
0,0.022598112065311798,0.022598112065311798,0.022598112065311798,0.022598112065311798,63.0,63.0,63.0,63.0,0.018024506714180454,0.018024506714180454,0.018024506714180454,0.018024506714180454,0.0005104322094050179,0.0005104322094050179,0.0005104322094050179,0.0005104322094050179,3.687793023743352,3.687793023743352,3.687793023743352,3.687793023743352,92.0,92.0,92.0,92.0,1,1
0,0.04761278993820249,0.04761278993820249,0.04761278993820249,0.04761278993820249,54.0,54.0,54.0,54.0,0.035931194933441275,0.035931194933441275,0.035931194933441275,0.035931194933441275,0.0022635735729368144,0.0022635735729368144,0.0022635735729368144,0.0022635735729368144,5.986461423849458,5.986461423849458,5.986461423849458,5.986461423849458,84.0,84.0,84.0,84.0,1,2
0,0.015593139338668939,0.015593139338668939,0.015593139338668939,0.015593139338668939,54.0,54.0,54.0,54.0,0.012504375041001894,0.012504375041001894,0.012504375041001894,0.012504375041001894,0.00024313953958212656,0.00024313953958212656,0.00024313953958212656,0.00024313953958212656,2.1004645602979233,2.1004645602979233,2.1004645602979233,2.1004645602979233,79.0,79.0,79.0,79.0,1,4
0,0.1401856996700317,0.1401856996700317,0.1401856996700317,0.1401856996700317,67.0,67.0,67.0,67.0,0.11197318000225799,0.11197318000225799,0.11197318000225799,0.11197318000225799,0.01964563477269735,0.01964563477269735,0.01964563477269735,0.01964563477269735,23.31279223120932,23.31279223120932,23.31279223120932,23.31279223120932,87.0,87.0,87.0,87.0,1,5
0,0.03399558734803469,0.03399558734803469,0.03399558734803469,0.03399558734803469,53.0,53.0,53.0,53.0,0.026034885916346145,0.026034885916346145,0.026034885916346145,0.026034885916346145,0.001155695989573956,0.001155695989573956,0.001155695989573956,0.001155695989573956,4.268502346003933,4.268502346003933,4.268502346003933,4.268502346003933,72.0,72.0,72.0,72.0,1,3
0,0.05043023513168367,0.05043023513168367,0.05043023513168367,0.05043023513168367,65.0,65.0,65.0,65.0,0.03864107034168066,0.03864107034168066,0.03864107034168066,0.03864107034168066,0.002542950761223994,0.002542950761223994,0.002542950761223994,0.002542950761223994,7.345388754908658,7.345388754908658,7.345388754908658,7.345388754908658,86.0,86.0,86.0,86.0,1,2
0,0.026078289107709256,0.026078289107709256,0.026078289107709256,0.026078289107709256,62.0,62.0,62.0,62.0,0.019888081646403107,0.019888081646403107,0.019888081646403107,0.019888081646403107,0.0006797689037897088,0.0006797689037897088,0.0006797689037897088,0.0006797689037897088,4.055834275023438,4.055834275023438,4.055834275023438,4.055834275023438,100.0,100.0,100.0,100.0,1,6
0,0.031538622397078296,0.031538622397078296,0.031538622397078296,0.031538622397078296,61.0,61.0,61.0,61.0,0.024178365218777174,0.024178365218777174,0.024178365218777174,0.024178365218777174,0.0009946751409976465,0.0009946751409976465,0.0009946751409976465,0.0009946751409976465,4.833936833786495,4.833936833786495,4.833936833786495,4.833936833786495,95.0,95.0,95.0,95.0,1,1
0,0.02104941728964899,0.02104941728964899,0.02104941728964899,0.02104941728964899,61.0,61.0,61.0,61.0,0.015756406554095447,0.015756406554095447,0.015756406554095447,0.015756406554095447,0.00044302748836706177,0.00044302748836706177,0.00044302748836706177,0.00044302748836706177,2.824148969074625,2.824148969074625,2.824148969074625,2.824148969074625,96.0,96.0,96.0,96.0,1,1
0,0.1174323932582697,0.1174323932582697,0.1174323932582697,0.1174323932582697,79.0,79.0,79.0,79.0,0.0888277665885238,0.0888277665885238,0.0888277665885238,0.0888277665885238,0.013789980267946938,0.013789980267946938,0.013789980267946938,0.013789980267946938,19.721537685943545,19.721537685943545,19.721537685943545,19.721537685943545,90.0,90.0,90.0,90.0,1,5
0,0.029373046461966187,0.029373046461966187,0.029373046461966187,0.029373046461966187,69.0,69.0,69.0,69.0,0.02310235384608715,0.02310235384608715,0.02310235384608715,0.02310235384608715,0.000860673428523789,0.000860673428523789,0.000860673428523789,0.000860673428523789,4.23305379847129,4.23305379847129,4.23305379847129,4.23305379847129,96.0,96.0,96.0,96.0,1,6
0,0.033660364956816444,0.033660364956816444,0.033660364956816444,0.033660364956816444,48.0,48.0,48.0,48.0,0.027059027297174364,0.027059027297174364,0.027059027297174364,0.027059027297174364,0.00113296136275248,0.00113296136275248,0.00113296136275248,0.00113296136275248,4.11787175396951,4.11787175396951,4.11787175396951,4.11787175396951,94.0,94.0,94.0,94.0,1,4
0,0.049375995818845164,0.049375995818845164,0.049375995818845164,0.049375995818845164,66.0,66.0,66.0,66.0,0.03835752679093388,0.03835752679093388,0.03835752679093388,0.03835752679093388,0.0024379708918852985,0.0024379708918852985,0.0024379708918852985,0.0024379708918852985,7.139876664913933,7.139876664913933,7.139876664913933,7.139876664913933,90.0,90.0,90.0,90.0,1,2
0,0.026108528996685695,0.026108528996685695,0.026108528996685695,0.026108528996685695,54.0,54.0,54.0,54.0,0.01938761005541032,0.01938761005541032,0.01938761005541032,0.01938761005541032,0.0006801930489718401,0.0006801930489718401,0.0006801930489718401,0.0006801930489718401,3.1360352764475006,3.1360352764475006,3.1360352764475006,3.1360352764475006,88.0,88.0,88.0,88.0,1,3
0,0.04613767247300028,0.04613767247300028,0.04613767247300028,0.04613767247300028,45.0,45.0,45.0,45.0,0.03423255600235744,0.03423255600235744,0.03423255600235744,0.03423255600235744,0.002128622069795843,0.002128622069795843,0.002128622069795843,0.002128622069795843,5.519284263379671,5.519284263379671,5.519284263379671,5.519284263379671,78.0,78.0,78.0,78.0,1,2
0,0.1159343743659218,0.1159343743659218,0.1159343743659218,0.1159343743659218,71.0,71.0,71.0,71.0,0.08732579742002297,0.08732579742002297,0.08732579742002297,0.08732579742002297,0.01343901163031396,0.01343901163031396,0.01343901163031396,0.01343901163031396,20.051124575496004,20.051124575496004,20.051124575496004,20.051124575496004,97.0,97.0,97.0,97.0,1,5
0,0.03072026896309094,0.03072026896309094,0.03072026896309094,0.03072026896309094,57.0,57.0,57.0,57.0,0.02360945335473216,0.02360945335473216,0.02360945335473216,0.02360945335473216,0.000943464615815887,0.000943464615815887,0.000943464615815887,0.000943464615815887,4.083898924241228,4.083898924241228,4.083898924241228,4.083898924241228,76.0,76.0,76.0,76.0,1,3
0,0.04236497520507052,0.04236497520507052,0.04236497520507052,0.04236497520507052,47.0,47.0,47.0,47.0,0.034240168112005656,0.034240168112005656,0.034240168112005656,0.034240168112005656,0.001792383353386396,0.001792383353386396,0.001792383353386396,0.001792383353386396,5.100280129654745,5.100280129654745,5.100280129654745,5.100280129654745,75.0,75.0,75.0,75.0,1,4
0,0.027352385360405216,0.027352385360405216,0.027352385360405216,0.027352385360405216,56.0,56.0,56.0,56.0,0.02123922599283855,0.02123922599283855,0.02123922599283855,0.02123922599283855,0.0007477267483754099,0.0007477267483754099,0.0007477267483754099,0.0007477267483754099,3.723031269278027,3.723031269278027,3.723031269278027,3.723031269278027,96.0,96.0,96.0,96.0,1,6
0,0.03174464917484027,0.03174464917484027,0.03174464917484027,0.03174464917484027,48.0,48.0,48.0,48.0,0.024518459298417106,0.024518459298417106,0.024518459298417106,0.024518459298417106,0.0010066648697537952,0.0010066648697537952,0.0010066648697537952,0.0010066648697537952,4.432975036657422,4.432975036657422,4.432975036657422,4.432975036657422,96.0,96.0,96.0,96.0,1,1
0,0.020530990605093377,0.020530990605093377,0.020530990605093377,0.020530990605093377,61.0,61.0,61.0,61.0,0.015631312351556716,0.015631312351556716,0.015631312351556716,0.015631312351556716,0.0004212183494744209,0.0004212183494744209,0.0004212183494744209,0.0004212183494744209,3.115833732950951,3.115833732950951,3.115833732950951,3.115833732950951,94.0,94.0,94.0,94.0,1,1
0,0.09434474270188918,0.09434474270188918,0.09434474270188918,0.09434474270188918,69.0,69.0,69.0,69.0,0.07130222810069294,0.07130222810069294,0.07130222810069294,0.07130222810069294,0.008900892324387106,0.008900892324387106,0.008900892324387106,0.008900892324387106,15.504123732969607,15.504123732969607,15.504123732969607,15.504123732969607,98.0,98.0,98.0,98.0,1,5
0,0.03369328786768884,0.03369328786768884,0.03369328786768884,0.03369328786768884,64.0,64.0,64.0,64.0,0.02602938826379643,0.02602938826379643,0.02602938826379643,0.02602938826379643,0.0011347569199308045,0.0011347569199308045,0.0011347569199308045,0.0011347569199308045,5.1608220743887845,5.1608220743887845,5.1608220743887845,5.1608220743887845,93.0,93.0,93.0,93.0,1,6
0,0.052599136823157415,0.052599136823157415,0.052599136823157415,0.052599136823157415,60.0,60.0,60.0,60.0,0.04011956237420918,0.04011956237420918,0.04011956237420918,0.04011956237420918,0.002761595628279716,0.002761595628279716,0.002761595628279716,0.002761595628279716,7.448153352104699,7.448153352104699,7.448153352104699,7.448153352104699,81.0,81.0,81.0,81.0,1,2
0,0.022165079926540054,0.022165079926540054,0.022165079926540054,0.022165079926540054,48.0,48.0,48.0,48.0,0.016974512496997135,0.016974512496997135,0.016974512496997135,0.016974512496997135,0.000491239232501289,0.000491239232501289,0.000491239232501289,0.000491239232501289,2.6713241114625674,2.6713241114625674,2.6713241114625674,2.6713241114625674,89.0,89.0,89.0,89.0,1,4
0,0.03311564164314505,0.03311564164314505,0.03311564164314505,0.03311564164314505,54.0,54.0,54.0,54.0,0.02404007094064448,0.02404007094064448,0.02404007094064448,0.02404007094064448,0.0010966323104335837,0.0010966323104335837,0.0010966323104335837,0.0010966323104335837,4.237093734255895,4.237093734255895,4.237093734255895,4.237093734255895,73.0,73.0,73.0,73.0,1,3
0,0.024092998383449703,0.024092998383449703,0.024092998383449703,0.024092998383449703,56.0,56.0,56.0,56.0,0.018301793713618272,0.018301793713618272,0.018301793713618272,0.018301793713618272,0.0005804588691265861,0.0005804588691265861,0.0005804588691265861,0.0005804588691265861,3.0404354785261054,3.0404354785261054,3.0404354785261054,3.0404354785261054,80.0,80.0,80.0,80.0,1,4
0,0.08422654565152353,0.08422654565152353,0.08422654565152353,0.08422654565152353,65.0,65.0,65.0,65.0,0.06866141327748473,0.06866141327748473,0.06866141327748473,0.06866141327748473,0.007094047039724727,0.007094047039724727,0.007094047039724727,0.007094047039724727,14.293598728207037,14.293598728207037,14.293598728207037,14.293598728207037,98.0,98.0,98.0,98.0,1,5
0,0.03913413344114471,0.03913413344114471,0.03913413344114471,0.03913413344114471,61.0,61.0,61.0,61.0,0.030804685358664916,0.030804685358664916,0.030804685358664916,0.030804685358664916,0.001531430646267539,0.001531430646267539,0.001531430646267539,0.001531430646267539,5.755015906376841,5.755015906376841,5.755015906376841,5.755015906376841,94.0,94.0,94.0,94.0,1,6
0,0.02745626414374157,0.02745626414374157,0.02745626414374157,0.02745626414374157,63.0,63.0,63.0,63.0,0.020943497671477736,0.020943497671477736,0.020943497671477736,0.020943497671477736,0.0007537899176452551,0.0007537899176452551,0.0007537899176452551,0.0007537899176452551,4.212769665282488,4.212769665282488,4.212769665282488,4.212769665282488,105.0,105.0,105.0,105.0,1,1
0,0.025305475766291344,0.025305475766291344,0.025305475766291344,0.025305475766291344,65.0,65.0,65.0,65.0,0.019875946421606585,0.019875946421606585,0.019875946421606585,0.019875946421606585,0.0006403595634099568,0.0006403595634099568,0.0006403595634099568,0.0006403595634099568,3.5613047742902455,3.5613047742902455,3.5613047742902455,3.5613047742902455,83.0,83.0,83.0,83.0,1,3
0,0.039152785351277225,0.039152785351277225,0.039152785351277225,0.039152785351277225,57.0,57.0,57.0,57.0,0.0300313379188023,0.0300313379188023,0.0300313379188023,0.0300313379188023,0.001532858309136252,0.001532858309136252,0.001532858309136252,0.001532858309136252,5.861533870809849,5.861533870809849,5.861533870809849,5.861533870809849,89.0,89.0,89.0,89.0,1,2
0,0.1378993993651779,0.1378993993651779,0.1378993993651779,0.1378993993651779,73.0,73.0,73.0,73.0,0.10828859423601031,0.10828859423601031,0.10828859423601031,0.10828859423601031,0.019015227638484525,0.019015227638484525,0.019015227638484525,0.019015227638484525,23.074476841487186,23.074476841487186,23.074476841487186,23.074476841487186,86.0,86.0,86.0,86.0,1,5
0,0.03697575456927342,0.03697575456927342,0.03697575456927342,0.03697575456927342,53.0,53.0,53.0,53.0,0.02904936975157116,0.02904936975157116,0.02904936975157116,0.02904936975157116,0.0013666445501826496,0.0013666445501826496,0.0013666445501826496,0.0013666445501826496,4.921500485219373,4.921500485219373,4.921500485219373,4.921500485219373,71.0,71.0,71.0,71.0,1,4
0,0.026742812014429258,0.026742812014429258,0.026742812014429258,0.026742812014429258,63.0,63.0,63.0,63.0,0.02158381533021144,0.02158381533021144,0.02158381533021144,0.02158381533021144,0.0007151148042592821,0.0007151148042592821,0.0007151148042592821,0.0007151148042592821,4.143635272090691,4.143635272090691,4.143635272090691,4.143635272090691,99.0,99.0,99.0,99.0,1,1
0,0.03092494675746836,0.03092494675746836,0.03092494675746836,0.03092494675746836,59.0,59.0,59.0,59.0,0.024555647597672335,0.024555647597672335,0.024555647597672335,0.024555647597672335,0.0009551173019069932,0.0009551173019069932,0.0009551173019069932,0.0009551173019069932,4.342724048312785,4.342724048312785,4.342724048312785,4.342724048312785,76.0,76.0,76.0,76.0,1,3
0,0.031134272544771323,0.031134272544771323,0.031134272544771323,0.031134272544771323,61.0,61.0,61.0,61.0,0.023998145216635153,0.023998145216635153,0.023998145216635153,0.023998145216635153,0.0009692781701336739,0.0009692781701336739,0.0009692781701336739,0.0009692781701336739,4.531707645661745,4.531707645661745,4.531707645661745,4.531707645661745,90.0,90.0,90.0,90.0,1,6
0,0.04292668128745082,0.04292668128745082,0.04292668128745082,0.04292668128745082,58.0,58.0,58.0,58.0,0.03371347473492356,0.03371347473492356,0.03371347473492356,0.03371347473492356,0.0018410192646088883,0.0018410192646088883,0.0018410192646088883,0.0018410192646088883,5.950343742680296,5.950343742680296,5.950343742680296,5.950343742680296,83.0,83.0,83.0,83.0,1,2
0,0.03622371584735643,0.03622371584735643,0.03622371584735643,0.03622371584735643,50.0,50.0,50.0,50.0,0.028281873250857747,0.028281873250857747,0.028281873250857747,0.028281873250857747,0.0013120815125625784,0.0013120815125625784,0.0013120815125625784,0.0013120815125625784,4.8440766156130035,4.8440766156130035,4.8440766156130035,4.8440766156130035,87.0,87.0,87.0,87.0,1,3
0,0.026675229344227412,0.026675229344227412,0.026675229344227412,0.026675229344227412,57.0,57.0,57.0,57.0,0.019890276199207736,0.019890276199207736,0.019890276199207736,0.019890276199207736,0.0007114212185533234,0.0007114212185533234,0.0007114212185533234,0.0007114212185533234,3.362608379042827,3.362608379042827,3.362608379042827,3.362608379042827,90.0,90.0,90.0,90.0,1,4
0,0.03304654875735755,0.03304654875735755,0.03304654875735755,0.03304654875735755,69.0,69.0,69.0,69.0,0.026050710986138717,0.026050710986138717,0.026050710986138717,0.026050710986138717,0.0010919948002479668,0.0010919948002479668,0.0010919948002479668,0.0010919948002479668,5.103842537908027,5.103842537908027,5.103842537908027,5.103842537908027,100.0,100.0,100.0,100.0,1,1
0,0.032636686328137196,0.032636686328137196,0.032636686328137196,0.032636686328137196,68.0,68.0,68.0,68.0,0.024740415091788613,0.024740415091788613,0.024740415091788613,0.024740415091788613,0.0010651068321758217,0.0010651068321758217,0.0010651068321758217,0.0010651068321758217,4.907133227573338,4.907133227573338,4.907133227573338,4.907133227573338,97.0,97.0,97.0,97.0,1,6
0,0.09137956355576957,0.09137956355576957,0.09137956355576957,0.09137956355576957,71.0,71.0,71.0,71.0,0.07048628696063583,0.07048628696063583,0.07048628696063583,0.07048628696063583,0.00834962157054056,0.00834962157054056,0.00834962157054056,0.00834962157054056,16.190918561874316,16.190918561874316,16.190918561874316,16.190918561874316,96.0,96.0,96.0,96.0,1,5
0,0.03808267475307518,0.03808267475307518,0.03808267475307518,0.03808267475307518,68.0,68.0,68.0,68.0,0.029124237620003567,0.029124237620003567,0.029124237620003567,0.029124237620003567,0.0014501793021589832,0.0014501793021589832,0.0014501793021589832,0.0014501793021589832,6.27364921504888,6.27364921504888,6.27364921504888,6.27364921504888,93.0,93.0,93.0,93.0,1,2
0,0.12538009393696137,0.12538009393696137,0.12538009393696137,0.12538009393696137,71.0,71.0,71.0,71.0,0.0986116229435622,0.0986116229435622,0.0986116229435622,0.0986116229435622,0.015719861444704327,0.015719861444704327,0.015719861444704327,0.015719861444704327,22.430149205929496,22.430149205929496,22.430149205929496,22.430149205929496,91.0,91.0,91.0,91.0,1,5
0,0.043146196206704644,0.043146196206704644,0.043146196206704644,0.043146196206704644,53.0,53.0,53.0,53.0,0.034047924409869035,0.034047924409869035,0.034047924409869035,0.034047924409869035,0.0018614246581534922,0.0018614246581534922,0.0018614246581534922,0.0018614246581534922,5.30354548931115,5.30354548931115,5.30354548931115,5.30354548931115,94.0,94.0,94.0,94.0,1,3
0,0.02452876688249555,0.02452876688249555,0.02452876688249555,0.02452876688249555,71.0,71.0,71.0,71.0,0.019192494340449687,0.019192494340449687,0.019192494340449687,0.019192494340449687,0.0006005480705909824,0.0006005480705909824,0.0006005480705909824,0.0006005480705909824,4.060406216015132,4.060406216015132,4.060406216015132,4.060406216015132,99.0,99.0,99.0,99.0,1,1
0,0.029557296815973105,0.029557296815973105,0.029557296815973105,0.029557296815973105,66.0,66.0,66.0,66.0,0.022939764872740485,0.022939764872740485,0.022939764872740485,0.022939764872740485,0.0008734561502794789,0.0008734561502794789,0.0008734561502794789,0.0008734561502794789,4.547336515990002,4.547336515990002,4.547336515990002,4.547336515990002,92.0,92.0,92.0,92.0,1,6
0,0.030993531955636405,0.030993531955636405,0.030993531955636405,0.030993531955636405,49.0,49.0,49.0,49.0,0.02419226863472674,0.02419226863472674,0.02419226863472674,0.02419226863472674,0.0009592678719958026,0.0009592678719958026,0.0009592678719958026,0.0009592678719958026,3.9605277307106466,3.9605277307106466,3.9605277307106466,3.9605277307106466,87.0,87.0,87.0,87.0,1,4
0,0.059472492285286144,0.059472492285286144,0.059472492285286144,0.059472492285286144,66.0,66.0,66.0,66.0,0.04851352314041251,0.04851352314041251,0.04851352314041251,0.04851352314041251,0.0035367937205402615,0.0035367937205402615,0.0035367937205402615,0.0035367937205402615,10.105948457245837,10.105948457245837,10.105948457245837,10.105948457245837,93.0,93.0,93.0,93.0,1,2
0,0.020546800591180456,0.020546800591180456,0.020546800591180456,0.020546800591180456,62.0,62.0,62.0,62.0,0.016027307383521837,0.016027307383521837,0.016027307383521837,0.016027307383521837,0.00042198593100466214,0.00042198593100466214,0.00042198593100466214,0.00042198593100466214,3.0262261645524013,3.0262261645524013,3.0262261645524013,3.0262261645524013,83.0,83.0,83.0,83.0,1,4
0,0.11578281185741429,0.11578281185741429,0.11578281185741429,0.11578281185741429,66.0,66.0,66.0,66.0,0.09123535757425329,0.09123535757425329,0.09123535757425329,0.09123535757425329,0.013404266799873856,0.013404266799873856,0.013404266799873856,0.013404266799873856,19.64931773987439,19.64931773987439,19.64931773987439,19.64931773987439,86.0,86.0,86.0,86.0,1,5
0,0.03598315627387263,0.03598315627387263,0.03598315627387263,0.03598315627387263,62.0,62.0,62.0,62.0,0.026624621356854474,0.026624621356854474,0.026624621356854474,0.026624621356854474,0.0012938346565583387,0.0012938346565583387,0.0012938346565583387,0.0012938346565583387,4.667862378190789,4.667862378190789,4.667862378190789,4.667862378190789,87.0,87.0,87.0,87.0,1,3
0,0.026827448057753424,0.026827448057753424,0.026827448057753424,0.026827448057753424,77.0,77.0,77.0,77.0,0.020371758073641867,0.020371758073641867,0.020371758073641867,0.020371758073641867,0.0007196443390755633,0.0007196443390755633,0.0007196443390755633,0.0007196443390755633,4.29076468367452,4.29076468367452,4.29076468367452,4.29076468367452,110.0,110.0,110.0,110.0,1,1
0,0.039829004514135714,0.039829004514135714,0.039829004514135714,0.039829004514135714,54.0,54.0,54.0,54.0,0.030612765995061953,0.030612765995061953,0.030612765995061953,0.030612765995061953,0.001586295999327533,0.001586295999327533,0.001586295999327533,0.001586295999327533,5.313067710612586,5.313067710612586,5.313067710612586,5.313067710612586,94.0,94.0,94.0,94.0,1,6
0,0.05996308042175645,0.05996308042175645,0.05996308042175645,0.05996308042175645,57.0,57.0,57.0,57.0,0.04508575561059807,0.04508575561059807,0.04508575561059807,0.04508575561059807,0.0035954634520515387,0.0035954634520515387,0.0035954634520515387,0.0035954634520515387,8.49867561170533,8.49867561170533,8.49867561170533,8.49867561170533,88.0,88.0,88.0,88.0,1,2
0,0.01895980283178099,0.01895980283178099,0.01895980283178099,0.01895980283178099,62.0,62.0,62.0,62.0,0.014216752001342293,0.014216752001342293,0.014216752001342293,0.014216752001342293,0.0003594356000201084,0.0003594356000201084,0.0003594356000201084,0.0003594356000201084,2.636852541703388,2.636852541703388,2.636852541703388,2.636852541703388,89.0,89.0,89.0,89.0,1,4
0,0.07374360862823744,0.07374360862823744,0.07374360862823744,0.07374360862823744,60.0,60.0,60.0,60.0,0.057979682875672775,0.057979682875672775,0.057979682875672775,0.057979682875672775,0.005437503616252008,0.005437503616252008,0.005437503616252008,0.005437503616252008,11.061702702043824,11.061702702043824,11.061702702043824,11.061702702043824,82.0,82.0,82.0,82.0,1,2
0,0.027088031442808722,0.027088031442808722,0.027088031442808722,0.027088031442808722,52.0,52.0,52.0,52.0,0.021014997518724977,0.021014997518724977,0.021014997518724977,0.021014997518724977,0.0007333493100614035,0.0007333493100614035,0.0007333493100614035,0.0007333493100614035,3.548546026720695,3.548546026720695,3.548546026720695,3.548546026720695,85.0,85.0,85.0,85.0,1,3
0,0.03771084389918243,0.03771084389918243,0.03771084389918243,0.03771084389918243,51.0,51.0,51.0,51.0,0.029747522134302685,0.029747522134302685,0.029747522134302685,0.029747522134302685,0.0014217258343059138,0.0014217258343059138,0.0014217258343059138,0.0014217258343059138,5.117143900225244,5.117143900225244,5.117143900225244,5.117143900225244,90.0,90.0,90.0,90.0,1,6
0,0.10313521138491431,0.10313521138491431,0.10313521138491431,0.10313521138491431,69.0,69.0,69.0,69.0,0.07859835276922227,0.07859835276922227,0.07859835276922227,0.07859835276922227,0.010633867473746865,0.010633867473746865,0.010633867473746865,0.010633867473746865,15.94934565368514,15.94934565368514,15.94934565368514,15.94934565368514,97.0,97.0,97.0,97.0,1,5
