,rms0,rms1,rms2,rms3,zc0,zc1,zc2,zc3,mav0,mav1,mav2,mav3,var0,var1,var2,var3,wl0,wl1,wl2,wl3,ssc0,ssc1,ssc2,ssc3,contraction,output
0,0.10527241030329623,0.10527241030329623,0.10527241030329623,0.10527241030329623,75.0,75.0,75.0,75.0,0.08237832651499408,0.08237832651499408,0.08237832651499408,0.08237832651499408,0.011082196449203958,0.011082196449203958,0.011082196449203958,0.011082196449203958,19.755966974474692,19.755966974474692,19.755966974474692,19.755966974474692,114.0,114.0,114.0,114.0,1,5
0,0.0190952953942138,0.0190952953942138,0.0190952953942138,0.0190952953942138,76.0,76.0,76.0,76.0,0.014506331753648141,0.014506331753648141,0.014506331753648141,0.014506331753648141,0.00036462373150328406,0.00036462373150328406,0.00036462373150328406,0.00036462373150328406,3.3314762494800556,3.3314762494800556,3.3314762494800556,3.3314762494800556,107.0,107.0,107.0,107.0,1,1
0,0.017178526076845113,0.017178526076845113,0.017178526076845113,0.017178526076845113,71.0,71.0,71.0,71.0,0.012871434910396573,0.012871434910396573,0.012871434910396573,0.012871434910396573,0.00029509706537128436,0.00029509706537128436,0.00029509706537128436,0.00029509706537128436,2.9216798416802776,2.9216798416802776,2.9216798416802776,2.9216798416802776,106.0,106.0,106.0,106.0,1,2
0,0.010487038407302238,0.010487038407302238,0.010487038407302238,0.010487038407302238,66.0,66.0,66.0,66.0,0.008008315215967591,0.008008315215967591,0.008008315215967591,0.008008315215967591,0.00010996662755848333,0.00010996662755848333,0.00010996662755848333,0.00010996662755848333,1.7585221767744215,1.7585221767744215,1.7585221767744215,1.7585221767744215,95.0,95.0,95.0,95.0,1,4
0,0.036226629373415996,0.036226629373415996,0.036226629373415996,0.036226629373415996,82.0,82.0,82.0,82.0,0.02524456811832643,0.02524456811832643,0.02524456811832643,0.02524456811832643,0.0013116850102557892,0.0013116850102557892,0.0013116850102557892,0.0013116850102557892,6.305264720825374,6.305264720825374,6.305264720825374,6.305264720825374,107.0,107.0,107.0,107.0,1,6
0,0.019371903039236128,0.019371903039236128,0.019371903039236128,0.019371903039236128,54.0,54.0,54.0,54.0,0.01274357207058827,0.01274357207058827,0.01274357207058827,0.01274357207058827,0.00037526941017004047,0.00037526941017004047,0.00037526941017004047,0.00037526941017004047,2.2926877643302657,2.2926877643302657,2.2926877643302657,2.2926877643302657,83.0,83.0,83.0,83.0,1,3
0,0.017125583945262007,0.017125583945262007,0.017125583945262007,0.017125583945262007,68.0,68.0,68.0,68.0,0.013445519794049248,0.013445519794049248,0.013445519794049248,0.013445519794049248,0.00029323585241490644,0.00029323585241490644,0.00029323585241490644,0.00029323585241490644,2.961024583838915,2.961024583838915,2.961024583838915,2.961024583838915,92.0,92.0,92.0,92.0,1,1
0,0.09644414711243277,0.09644414711243277,0.09644414711243277,0.09644414711243277,85.0,85.0,85.0,85.0,0.07304502538511859,0.07304502538511859,0.07304502538511859,0.07304502538511859,0.009301471424785128,0.009301471424785128,0.009301471424785128,0.009301471424785128,17.372761814078192,17.372761814078192,17.372761814078192,17.372761814078192,103.0,103.0,103.0,103.0,1,5
0,0.0158551129321161,0.0158551129321161,0.0158551129321161,0.0158551129321161,79.0,79.0,79.0,79.0,0.011772132263782906,0.011772132263782906,0.011772132263782906,0.011772132263782906,0.000251384447443732,0.000251384447443732,0.000251384447443732,0.000251384447443732,3.0021585650812583,3.0021585650812583,3.0021585650812583,3.0021585650812583,110.0,110.0,110.0,110.0,1,4
0,0.015269206479839056,0.015269206479839056,0.015269206479839056,0.015269206479839056,60.0,60.0,60.0,60.0,0.010248331808670456,0.010248331808670456,0.010248331808670456,0.010248331808670456,0.0002331486662451343,0.0002331486662451343,0.0002331486662451343,0.0002331486662451343,1.8753435271157524,1.8753435271157524,1.8753435271157524,1.8753435271157524,86.0,86.0,86.0,86.0,1,3
0,0.02536779769977604,0.02536779769977604,0.02536779769977604,0.02536779769977604,86.0,86.0,86.0,86.0,0.018392702777734252,0.018392702777734252,0.018392702777734252,0.018392702777734252,0.0006430647207445977,0.0006430647207445977,0.0006430647207445977,0.0006430647207445977,4.757228683562671,4.757228683562671,4.757228683562671,4.757228683562671,111.0,111.0,111.0,111.0,1,6
0,0.02023198806128833,0.02023198806128833,0.02023198806128833,0.02023198806128833,55.0,55.0,55.0,55.0,0.014136515396974372,0.014136515396974372,0.014136515396974372,0.014136515396974372,0.00040930837652461167,0.00040930837652461167,0.00040930837652461167,0.00040930837652461167,2.424928202071187,2.424928202071187,2.424928202071187,2.424928202071187,86.0,86.0,86.0,86.0,1,2
0,0.03812994110017259,0.03812994110017259,0.03812994110017259,0.03812994110017259,80.0,80.0,80.0,80.0,0.025921870360287685,0.025921870360287685,0.025921870360287685,0.025921870360287685,0.0014537851530000373,0.0014537851530000373,0.0014537851530000373,0.0014537851530000373,6.26960098714942,6.26960098714942,6.26960098714942,6.26960098714942,109.0,109.0,109.0,109.0,1,6
0,0.01203130608793246,0.01203130608793246,0.01203130608793246,0.01203130608793246,89.0,89.0,89.0,89.0,0.009132618947651059,0.009132618947651059,0.009132618947651059,0.009132618947651059,0.0001447134890900042,0.0001447134890900042,0.0001447134890900042,0.0001447134890900042,2.406355459692768,2.406355459692768,2.406355459692768,2.406355459692768,110.0,110.0,110.0,110.0,1,4
0,0.0709041021094044,0.0709041021094044,0.0709041021094044,0.0709041021094044,77.0,77.0,77.0,77.0,0.054742147481535657,0.054742147481535657,0.054742147481535657,0.054742147481535657,0.005026270360663878,0.005026270360663878,0.005026270360663878,0.005026270360663878,13.388435223406322,13.388435223406322,13.388435223406322,13.388435223406322,105.0,105.0,105.0,105.0,1,5
0,0.007868406005677887,0.007868406005677887,0.007868406005677887,0.007868406005677887,50.0,50.0,50.0,50.0,0.005734092801887687,0.005734092801887687,0.005734092801887687,0.005734092801887687,6.190758856046965e-05,6.190758856046965e-05,6.190758856046965e-05,6.190758856046965e-05,1.015825870641062,1.015825870641062,1.015825870641062,1.015825870641062,81.0,81.0,81.0,81.0,1,3
0,0.026625430774075483,0.026625430774075483,0.026625430774075483,0.026625430774075483,71.0,71.0,71.0,71.0,0.02003900402929827,0.02003900402929827,0.02003900402929827,0.02003900402929827,0.0007088031769266655,0.0007088031769266655,0.0007088031769266655,0.0007088031769266655,4.041791811772185,4.041791811772185,4.041791811772185,4.041791811772185,96.0,96.0,96.0,96.0,1,2
0,0.0207302705652312,0.0207302705652312,0.0207302705652312,0.0207302705652312,77.0,77.0,77.0,77.0,0.01600428636992668,0.01600428636992668,0.01600428636992668,0.01600428636992668,0.00042965808943717503,0.00042965808943717503,0.00042965808943717503,0.00042965808943717503,3.543635981406444,3.543635981406444,3.543635981406444,3.543635981406444,113.0,113.0,113.0,113.0,1,1
0,0.024370678303689462,0.024370678303689462,0.024370678303689462,0.024370678303689462,65.0,65.0,65.0,65.0,0.019205832954247107,0.019205832954247107,0.019205832954247107,0.019205832954247107,0.0005937083920239806,0.0005937083920239806,0.0005937083920239806,0.0005937083920239806,4.129378442609292,4.129378442609292,4.129378442609292,4.129378442609292,96.0,96.0,96.0,96.0,1,2
0,0.030884180276067028,0.030884180276067028,0.030884180276067028,0.030884180276067028,72.0,72.0,72.0,72.0,0.022591002288953593,0.022591002288953593,0.022591002288953593,0.022591002288953593,0.0009538162943589921,0.0009538162943589921,0.0009538162943589921,0.0009538162943589921,4.794718306933974,4.794718306933974,4.794718306933974,4.794718306933974,91.0,91.0,91.0,91.0,1,3
0,0.06021002003339999,0.06021002003339999,0.06021002003339999,0.06021002003339999,85.0,85.0,85.0,85.0,0.04587839491456552,0.04587839491456552,0.04587839491456552,0.04587839491456552,0.0036251888972241007,0.0036251888972241007,0.0036251888972241007,0.0036251888972241007,11.45558825321747,11.45558825321747,11.45558825321747,11.45558825321747,113.0,113.0,113.0,113.0,1,5
0,0.009078259302969483,0.009078259302969483,0.009078259302969483,0.009078259302969483,79.0,79.0,79.0,79.0,0.0071854382118875385,0.0071854382118875385,0.0071854382118875385,0.0071854382118875385,8.238768718965282e-05,8.238768718965282e-05,8.238768718965282e-05,8.238768718965282e-05,1.6809690709418776,1.6809690709418776,1.6809690709418776,1.6809690709418776,108.0,108.0,108.0,108.0,1,4
0,0.01037723584233726,0.01037723584233726,0.01037723584233726,0.01037723584233726,66.0,66.0,66.0,66.0,0.007294937153616514,0.007294937153616514,0.007294937153616514,0.007294937153616514,0.00010767626973406549,0.00010767626973406549,0.00010767626973406549,0.00010767626973406549,1.4896533809339392,1.4896533809339392,1.4896533809339392,1.4896533809339392,86.0,86.0,86.0,86.0,1,1
0,0.02333295835946572,0.02333295835946572,0.02333295835946572,0.02333295835946572,62.0,62.0,62.0,62.0,0.015962303846682596,0.015962303846682596,0.015962303846682596,0.015962303846682596,0.000544410633491751,0.000544410633491751,0.000544410633491751,0.000544410633491751,3.881418007378315,3.881418007378315,3.881418007378315,3.881418007378315,99.0,99.0,99.0,99.0,1,6
0,0.07447590518750287,0.07447590518750287,0.07447590518750287,0.07447590518750287,91.0,91.0,91.0,91.0,0.05421637047163374,0.05421637047163374,0.05421637047163374,0.05421637047163374,0.005546270862867111,0.005546270862867111,0.005546270862867111,0.005546270862867111,14.616277103980089,14.616277103980089,14.616277103980089,14.616277103980089,108.0,108.0,108.0,108.0,1,5
0,0.02751784923736752,0.02751784923736752,0.02751784923736752,0.02751784923736752,66.0,66.0,66.0,66.0,0.020236879827564752,0.020236879827564752,0.020236879827564752,0.020236879827564752,0.0007571274589674376,0.0007571274589674376,0.0007571274589674376,0.0007571274589674376,4.544051363015896,4.544051363015896,4.544051363015896,4.544051363015896,96.0,96.0,96.0,96.0,1,2
0,0.010479745670958746,0.010479745670958746,0.010479745670958746,0.010479745670958746,52.0,52.0,52.0,52.0,0.0072783756614391674,0.0072783756614391674,0.0072783756614391674,0.0072783756614391674,0.00010952308919632084,0.00010952308919632084,0.00010952308919632084,0.00010952308919632084,1.207623897063186,1.207623897063186,1.207623897063186,1.207623897063186,79.0,79.0,79.0,79.0,1,4
0,0.015394977268176712,0.015394977268176712,0.015394977268176712,0.015394977268176712,70.0,70.0,70.0,70.0,0.01153691450664789,0.01153691450664789,0.01153691450664789,0.01153691450664789,0.00023699999437284722,0.00023699999437284722,0.00023699999437284722,0.00023699999437284722,2.7080792171649133,2.7080792171649133,2.7080792171649133,2.7080792171649133,107.0,107.0,107.0,107.0,1,6
0,0.011936885512560221,0.011936885512560221,0.011936885512560221,0.011936885512560221,58.0,58.0,58.0,58.0,0.007472196122154063,0.007472196122154063,0.007472196122154063,0.007472196122154063,0.00014248453820102556,0.00014248453820102556,0.00014248453820102556,0.00014248453820102556,1.2907772957809232,1.2907772957809232,1.2907772957809232,1.2907772957809232,87.0,87.0,87.0,87.0,1,3
0,0.01785328744691189,0.01785328744691189,0.01785328744691189,0.01785328744691189,86.0,86.0,86.0,86.0,0.01391571228417175,0.01391571228417175,0.01391571228417175,0.01391571228417175,0.0003187390695967883,0.0003187390695967883,0.0003187390695967883,0.0003187390695967883,3.4301376528210037,3.4301376528210037,3.4301376528210037,3.4301376528210037,110.0,110.0,110.0,110.0,1,1
0,0.0982129509860773,0.0982129509860773,0.0982129509860773,0.0982129509860773,66.0,66.0,66.0,66.0,0.06962554792669227,0.06962554792669227,0.06962554792669227,0.06962554792669227,0.00964229038646163,0.00964229038646163,0.00964229038646163,0.00964229038646163,15.87033432233924,15.87033432233924,15.87033432233924,15.87033432233924,108.0,108.0,108.0,108.0,1,5
0,0.011190109039626977,0.011190109039626977,0.011190109039626977,0.011190109039626977,71.0,71.0,71.0,71.0,0.00847693204039255,0.00847693204039255,0.00847693204039255,0.00847693204039255,0.00012521303376108377,0.00012521303376108377,0.00012521303376108377,0.00012521303376108377,1.8182531496369512,1.8182531496369512,1.8182531496369512,1.8182531496369512,98.0,98.0,98.0,98.0,1,4
0,0.012833466556203639,0.012833466556203639,0.012833466556203639,0.012833466556203639,52.0,52.0,52.0,52.0,0.008838314654896914,0.008838314654896914,0.008838314654896914,0.008838314654896914,0.00016468619065788573,0.00016468619065788573,0.00016468619065788573,0.00016468619065788573,1.5569491630031038,1.5569491630031038,1.5569491630031038,1.5569491630031038,82.0,82.0,82.0,82.0,1,3
0,0.02545794066728711,0.02545794066728711,0.02545794066728711,0.02545794066728711,81.0,81.0,81.0,81.0,0.01794528704727287,0.01794528704727287,0.01794528704727287,0.01794528704727287,0.0006480443389424995,0.0006480443389424995,0.0006480443389424995,0.0006480443389424995,4.366428132101906,4.366428132101906,4.366428132101906,4.366428132101906,97.0,97.0,97.0,97.0,1,6
0,0.023566139278291584,0.023566139278291584,0.023566139278291584,0.023566139278291584,52.0,52.0,52.0,52.0,0.01533112852528292,0.01533112852528292,0.01533112852528292,0.01533112852528292,0.0005553321308812402,0.0005553321308812402,0.0005553321308812402,0.0005553321308812402,2.6158416805702642,2.6158416805702642,2.6158416805702642,2.6158416805702642,90.0,90.0,90.0,90.0,1,2
0,0.0199000825990594,0.0199000825990594,0.0199000825990594,0.0199000825990594,80.0,80.0,80.0,80.0,0.01532864819361067,0.01532864819361067,0.01532864819361067,0.01532864819361067,0.0003958787579394747,0.0003958787579394747,0.0003958787579394747,0.0003958787579394747,3.64512886427413,3.64512886427413,3.64512886427413,3.64512886427413,97.0,97.0,97.0,97.0,1,1
0,0.09613824838884777,0.09613824838884777,0.09613824838884777,0.09613824838884777,83.0,83.0,83.0,83.0,0.07213553121959185,0.07213553121959185,0.07213553121959185,0.07213553121959185,0.00924137698032097,0.00924137698032097,0.00924137698032097,0.00924137698032097,18.009068355791555,18.009068355791555,18.009068355791555,18.009068355791555,103.0,103.0,103.0,103.0,1,5
0,0.008019899477942695,0.008019899477942695,0.008019899477942695,0.008019899477942695,76.0,76.0,76.0,76.0,0.006237124088195795,0.006237124088195795,0.006237124088195795,0.006237124088195795,6.429072191098772e-05,6.429072191098772e-05,6.429072191098772e-05,6.429072191098772e-05,1.4050120152813919,1.4050120152813919,1.4050120152813919,1.4050120152813919,104.0,104.0,104.0,104.0,1,4
0,0.030917258388910875,0.030917258388910875,0.030917258388910875,0.030917258388910875,65.0,65.0,65.0,65.0,0.022893205024900446,0.022893205024900446,0.022893205024900446,0.022893205024900446,0.0009557771036157298,0.0009557771036157298,0.0009557771036157298,0.0009557771036157298,4.544458249520879,4.544458249520879,4.544458249520879,4.544458249520879,96.0,96.0,96.0,96.0,1,2
0,0.019168708324848405,0.019168708324848405,0.019168708324848405,0.019168708324848405,78.0,78.0,78.0,78.0,0.014593362437920502,0.014593362437920502,0.014593362437920502,0.014593362437920502,0.0003674228495901133,0.0003674228495901133,0.0003674228495901133,0.0003674228495901133,3.4227986029308344,3.4227986029308344,3.4227986029308344,3.4227986029308344,99.0,99.0,99.0,99.0,1,1
0,0.013144281849953322,0.013144281849953322,0.013144281849953322,0.013144281849953322,63.0,63.0,63.0,63.0,0.008555228203427304,0.008555228203427304,0.008555228203427304,0.008555228203427304,0.00017268040731430336,0.00017268040731430336,0.00017268040731430336,0.00017268040731430336,1.623546897142119,1.623546897142119,1.623546897142119,1.623546897142119,89.0,89.0,89.0,89.0,1,3
0,0.01580960707679644,0.01580960707679644,0.01580960707679644,0.01580960707679644,87.0,87.0,87.0,87.0,0.011510427535339573,0.011510427535339573,0.011510427535339573,0.011510427535339573,0.00024993723346801525,0.00024993723346801525,0.00024993723346801525,0.00024993723346801525,2.861445939107209,2.861445939107209,2.861445939107209,2.861445939107209,107.0,107.0,107.0,107.0,1,6
0,0.019420165955483785,0.019420165955483785,0.019420165955483785,0.019420165955483785,61.0,61.0,61.0,61.0,0.01338781713328502,0.01338781713328502,0.01338781713328502,0.01338781713328502,0.00037708519281553067,0.00037708519281553067,0.00037708519281553067,0.00037708519281553067,2.8160416617063637,2.8160416617063637,2.8160416617063637,2.8160416617063637,83.0,83.0,83.0,83.0,1,3
0,0.014031603752725642,0.014031603752725642,0.014031603752725642,0.014031603752725642,82.0,82.0,82.0,82.0,0.010670913572541314,0.010670913572541314,0.010670913572541314,0.010670913572541314,0.00019675899966399793,0.00019675899966399793,0.00019675899966399793,0.00019675899966399793,2.6344383870252575,2.6344383870252575,2.6344383870252575,2.6344383870252575,112.0,112.0,112.0,112.0,1,1
0,0.024095177531113232,0.024095177531113232,0.024095177531113232,0.024095177531113232,68.0,68.0,68.0,68.0,0.01884036543502699,0.01884036543502699,0.01884036543502699,0.01884036543502699,0.0005804644159388768,0.0005804644159388768,0.0005804644159388768,0.0005804644159388768,3.858561482705265,3.858561482705265,3.858561482705265,3.858561482705265,86.0,86.0,86.0,86.0,1,2
0,0.01873261313419585,0.01873261313419585,0.01873261313419585,0.01873261313419585,72.0,72.0,72.0,72.0,0.012127426960378796,0.012127426960378796,0.012127426960378796,0.012127426960378796,0.00035090731573507157,0.00035090731573507157,0.00035090731573507157,0.00035090731573507157,2.7466408511303335,2.7466408511303335,2.7466408511303335,2.7466408511303335,90.0,90.0,90.0,90.0,1,6
0,0.09397711945716351,0.09397711945716351,0.09397711945716351,0.09397711945716351,83.0,83.0,83.0,83.0,0.07292617293882021,0.07292617293882021,0.07292617293882021,0.07292617293882021,0.008828975540264865,0.008828975540264865,0.008828975540264865,0.008828975540264865,17.840485768187506,17.840485768187506,17.840485768187506,17.840485768187506,103.0,103.0,103.0,103.0,1,5
0,0.00816450567709403,0.00816450567709403,0.00816450567709403,0.00816450567709403,77.0,77.0,77.0,77.0,0.006175474724514886,0.006175474724514886,0.006175474724514886,0.006175474724514886,6.663107551199095e-05,6.663107551199095e-05,6.663107551199095e-05,6.663107551199095e-05,1.4038767042955747,1.4038767042955747,1.4038767042955747,1.4038767042955747,101.0,101.0,101.0,101.0,1,4
0,0.020636861663112224,0.020636861663112224,0.020636861663112224,0.020636861663112224,58.0,58.0,58.0,58.0,0.013082217288352172,0.013082217288352172,0.013082217288352172,0.013082217288352172,0.0004258217556462375,0.0004258217556462375,0.0004258217556462375,0.0004258217556462375,2.439177755960667,2.439177755960667,2.439177755960667,2.439177755960667,83.0,83.0,83.0,83.0,1,1
0,0.03677618195125354,0.03677618195125354,0.03677618195125354,0.03677618195125354,61.0,61.0,61.0,61.0,0.02491153504832295,0.02491153504832295,0.02491153504832295,0.02491153504832295,0.001352229386663286,0.001352229386663286,0.001352229386663286,0.001352229386663286,5.22853705983581,5.22853705983581,5.22853705983581,5.22853705983581,86.0,86.0,86.0,86.0,1,5
0,0.0228609290302719,0.0228609290302719,0.0228609290302719,0.0228609290302719,93.0,93.0,93.0,93.0,0.015670418387943294,0.015670418387943294,0.015670418387943294,0.015670418387943294,0.0005226100833733875,0.0005226100833733875,0.0005226100833733875,0.0005226100833733875,4.134301046466405,4.134301046466405,4.134301046466405,4.134301046466405,110.0,110.0,110.0,110.0,1,6
0,0.00866325922846133,0.00866325922846133,0.00866325922846133,0.00866325922846133,72.0,72.0,72.0,72.0,0.006501723502369279,0.006501723502369279,0.006501723502369279,0.006501723502369279,7.503223296689256e-05,7.503223296689256e-05,7.503223296689256e-05,7.503223296689256e-05,1.480824797495832,1.480824797495832,1.480824797495832,1.480824797495832,103.0,103.0,103.0,103.0,1,4
0,0.011654643567951596,0.011654643567951596,0.011654643567951596,0.011654643567951596,58.0,58.0,58.0,58.0,0.007140868599634324,0.007140868599634324,0.007140868599634324,0.007140868599634324,0.00013577785895259924,0.00013577785895259924,0.00013577785895259924,0.00013577785895259924,1.3876945737650341,1.3876945737650341,1.3876945737650341,1.3876945737650341,84.0,84.0,84.0,84.0,1,3
0,0.020671236101727834,0.020671236101727834,0.020671236101727834,0.020671236101727834,57.0,57.0,57.0,57.0,0.01402986353871365,0.01402986353871365,0.01402986353871365,0.01402986353871365,0.00042723110185207596,0.00042723110185207596,0.00042723110185207596,0.00042723110185207596,2.6270199418787072,2.6270199418787072,2.6270199418787072,2.6270199418787072,88.0,88.0,88.0,88.0,1,2
0,0.008481684230342052,0.008481684230342052,0.008481684230342052,0.008481684230342052,42.0,42.0,42.0,42.0,0.005220315759335987,0.005220315759335987,0.005220315759335987,0.005220315759335987,7.162313658704463e-05,7.162313658704463e-05,7.162313658704463e-05,7.162313658704463e-05,0.8075331043635186,0.8075331043635186,0.8075331043635186,0.8075331043635186,94.0,94.0,94.0,94.0,1,2
0,0.07075342902791205,0.07075342902791205,0.07075342902791205,0.07075342902791205,87.0,87.0,87.0,87.0,0.05133169361488278,0.05133169361488278,0.05133169361488278,0.05133169361488278,0.005005868498403277,0.005005868498403277,0.005005868498403277,0.005005868498403277,13.214556851798683,13.214556851798683,13.214556851798683,13.214556851798683,106.0,106.0,106.0,106.0,1,5
0,0.024306510800202172,0.024306510800202172,0.024306510800202172,0.024306510800202172,72.0,72.0,72.0,72.0,0.016191981636827748,0.016191981636827748,0.016191981636827748,0.016191981636827748,0.0005902498516065037,0.0005902498516065037,0.0005902498516065037,0.0005902498516065037,3.6851003348538547,3.6851003348538547,3.6851003348538547,3.6851003348538547,98.0,98.0,98.0,98.0,1,6
0,0.014460370326723714,0.014460370326723714,0.014460370326723714,0.014460370326723714,60.0,60.0,60.0,60.0,0.010302572787380915,0.010302572787380915,0.010302572787380915,0.010302572787380915,0.00020910167715477448,0.00020910167715477448,0.00020910167715477448,0.00020910167715477448,1.9500643570994165,1.9500643570994165,1.9500643570994165,1.9500643570994165,88.0,88.0,88.0,88.0,1,1
0,0.01396899425576433,0.01396899425576433,0.01396899425576433,0.01396899425576433,61.0,61.0,61.0,61.0,0.008921125764879299,0.008921125764879299,0.008921125764879299,0.008921125764879299,0.00019499241516033716,0.00019499241516033716,0.00019499241516033716,0.00019499241516033716,1.4975427585369856,1.4975427585369856,1.4975427585369856,1.4975427585369856,90.0,90.0,90.0,90.0,1,3
0,0.00956512951129701,0.00956512951129701,0.00956512951129701,0.00956512951129701,66.0,66.0,66.0,66.0,0.007497632823556637,0.007497632823556637,0.007497632823556637,0.007497632823556637,9.146943179456895e-05,9.146943179456895e-05,9.146943179456895e-05,9.146943179456895e-05,1.6058099181379333,1.6058099181379333,1.6058099181379333,1.6058099181379333,94.0,94.0,94.0,94.0,1,4
0,0.014612026921209258,0.014612026921209258,0.014612026921209258,0.014612026921209258,77.0,77.0,77.0,77.0,0.010510682112145555,0.010510682112145555,0.010510682112145555,0.010510682112145555,0.00021351012186175003,0.00021351012186175003,0.00021351012186175003,0.00021351012186175003,2.5184616368700063,2.5184616368700063,2.5184616368700063,2.5184616368700063,110.0,110.0,110.0,110.0,1,6
0,0.02698315337325397,0.02698315337325397,0.02698315337325397,0.02698315337325397,74.0,74.0,74.0,74.0,0.02093445744866756,0.02093445744866756,0.02093445744866756,0.02093445744866756,0.000728084211565295,0.000728084211565295,0.000728084211565295,0.000728084211565295,4.364581106022294,4.364581106022294,4.364581106022294,4.364581106022294,98.0,98.0,98.0,98.0,1,2
0,0.010560857419976753,0.010560857419976753,0.010560857419976753,0.010560857419976753,68.0,68.0,68.0,68.0,0.007517461519957906,0.007517461519957906,0.007517461519957906,0.007517461519957906,0.00011149341228186723,0.00011149341228186723,0.00011149341228186723,0.00011149341228186723,1.418141538815264,1.418141538815264,1.418141538815264,1.418141538815264,91.0,91.0,91.0,91.0,1,3
0,0.019612856661851606,0.019612856661851606,0.019612856661851606,0.019612856661851606,81.0,81.0,81.0,81.0,0.01567890652231513,0.01567890652231513,0.01567890652231513,0.01567890652231513,0.00038452424345193273,0.00038452424345193273,0.00038452424345193273,0.00038452424345193273,3.632327025270591,3.632327025270591,3.632327025270591,3.632327025270591,107.0,107.0,107.0,107.0,1,1
0,0.06690034393835018,0.06690034393835018,0.06690034393835018,0.06690034393835018,82.0,82.0,82.0,82.0,0.047463432683628445,0.047463432683628445,0.047463432683628445,0.047463432683628445,0.004475561925473197,0.004475561925473197,0.004475561925473197,0.004475561925473197,11.93284146891141,11.93284146891141,11.93284146891141,11.93284146891141,110.0,110.0,110.0,110.0,1,5
0,0.008644086800506155,0.008644086800506155,0.008644086800506155,0.008644086800506155,62.0,62.0,62.0,62.0,0.006367187703581367,0.006367187703581367,0.006367187703581367,0.006367187703581367,7.467594836940346e-05,7.467594836940346e-05,7.467594836940346e-05,7.467594836940346e-05,1.1966718383441792,1.1966718383441792,1.1966718383441792,1.1966718383441792,95.0,95.0,95.0,95.0,1,4
0,0.014594423516360226,0.014594423516360226,0.014594423516360226,0.014594423516360226,80.0,80.0,80.0,80.0,0.01087352003333349,0.01087352003333349,0.01087352003333349,0.01087352003333349,0.00021299656626350713,0.00021299656626350713,0.00021299656626350713,0.00021299656626350713,2.429651377266388,2.429651377266388,2.429651377266388,2.429651377266388,101.0,101.0,101.0,101.0,1,1
0,0.0046770246941045274,0.0046770246941045274,0.0046770246941045274,0.0046770246941045274,62.0,62.0,62.0,62.0,0.0036698181328529366,0.0036698181328529366,0.0036698181328529366,0.0036698181328529366,2.187375056312082e-05,2.187375056312082e-05,2.187375056312082e-05,2.187375056312082e-05,0.626652015143599,0.626652015143599,0.626652015143599,0.626652015143599,85.0,85.0,85.0,85.0,1,3
0,0.017262384594695607,0.017262384594695607,0.017262384594695607,0.017262384594695607,74.0,74.0,74.0,74.0,0.012797072109051512,0.012797072109051512,0.012797072109051512,0.012797072109051512,0.000297989855230766,0.000297989855230766,0.000297989855230766,0.000297989855230766,2.9750181732716996,2.9750181732716996,2.9750181732716996,2.9750181732716996,94.0,94.0,94.0,94.0,1,6
0,0.030091345177903465,0.030091345177903465,0.030091345177903465,0.030091345177903465,72.0,72.0,72.0,72.0,0.022712524609068665,0.022712524609068665,0.022712524609068665,0.022712524609068665,0.0009052924305942531,0.0009052924305942531,0.0009052924305942531,0.0009052924305942531,4.92997192480353,4.92997192480353,4.92997192480353,4.92997192480353,107.0,107.0,107.0,107.0,1,2
0,0.005413356102359236,0.005413356102359236,0.005413356102359236,0.005413356102359236,73.0,73.0,73.0,73.0,0.004109855302187074,0.004109855302187074,0.004109855302187074,0.004109855302187074,2.9301973571555794e-05,2.9301973571555794e-05,2.9301973571555794e-05,2.9301973571555794e-05,0.8741425876451309,0.8741425876451309,0.8741425876451309,0.8741425876451309,100.0,100.0,100.0,100.0,1,4
0,0.07578427698095065,0.07578427698095065,0.07578427698095065,0.07578427698095065,71.0,71.0,71.0,71.0,0.05608924032910962,0.05608924032910962,0.05608924032910962,0.05608924032910962,0.005743180192832176,0.005743180192832176,0.005743180192832176,0.005743180192832176,13.206292004881409,13.206292004881409,13.206292004881409,13.206292004881409,108.0,108.0,108.0,108.0,1,5
0,0.011006681303653967,0.011006681303653967,0.011006681303653967,0.011006681303653967,59.0,59.0,59.0,59.0,0.006694002172096192,0.006694002172096192,0.006694002172096192,0.006694002172096192,0.00012106531744781327,0.00012106531744781327,0.00012106531744781327,0.00012106531744781327,1.3895011776579569,1.3895011776579569,1.3895011776579569,1.3895011776579569,96.0,96.0,96.0,96.0,1,3
0,0.008077660969743647,0.008077660969743647,0.008077660969743647,0.008077660969743647,75.0,75.0,75.0,75.0,0.005889219385317577,0.005889219385317577,0.005889219385317577,0.005889219385317577,6.513351153206474e-05,6.513351153206474e-05,6.513351153206474e-05,6.513351153206474e-05,1.3297470841820642,1.3297470841820642,1.3297470841820642,1.3297470841820642,104.0,104.0,104.0,104.0,1,4
0,0.041532711263554664,0.041532711263554664,0.041532711263554664,0.041532711263554664,85.0,85.0,85.0,85.0,0.03009542613996725,0.03009542613996725,0.03009542613996725,0.03009542613996725,0.001724721753288827,0.001724721753288827,0.001724721753288827,0.001724721753288827,7.5848617212201,7.5848617212201,7.5848617212201,7.5848617212201,110.0,110.0,110.0,110.0,1,5
0,0.03678500625641745,0.03678500625641745,0.03678500625641745,0.03678500625641745,69.0,69.0,69.0,69.0,0.026811465713739456,0.026811465713739456,0.026811465713739456,0.026811465713739456,0.001353128659853417,0.001353128659853417,0.001353128659853417,0.001353128659853417,5.884892450069675,5.884892450069675,5.884892450069675,5.884892450069675,98.0,98.0,98.0,98.0,1,2
0,0.017973033548353928,0.017973033548353928,0.017973033548353928,0.017973033548353928,80.0,80.0,80.0,80.0,0.013813770869895627,0.013813770869895627,0.013813770869895627,0.013813770869895627,0.000323024558405218,0.000323024558405218,0.000323024558405218,0.000323024558405218,3.367952313980978,3.367952313980978,3.367952313980978,3.367952313980978,106.0,106.0,106.0,106.0,1,1
0,0.019384500229891206,0.019384500229891206,0.019384500229891206,0.019384500229891206,84.0,84.0,84.0,84.0,0.013667614982894387,0.013667614982894387,0.013667614982894387,0.013667614982894387,0.000375684699617504,0.000375684699617504,0.000375684699617504,0.000375684699617504,3.364448757786684,3.364448757786684,3.364448757786684,3.364448757786684,115.0,115.0,115.0,115.0,1,6
0,0.032282372082556805,0.032282372082556805,0.032282372082556805,0.032282372082556805,80.0,80.0,80.0,80.0,0.023225061762271872,0.023225061762271872,0.023225061762271872,0.023225061762271872,0.0010420801498186472,0.0010420801498186472,0.0010420801498186472,0.0010420801498186472,5.714990357877313,5.714990357877313,5.714990357877313,5.714990357877313,100.0,100.0,100.0,100.0,1,6
0,0.016991914060485565,0.016991914060485565,0.016991914060485565,0.016991914060485565,62.0,62.0,62.0,62.0,0.011369405330947626,0.011369405330947626,0.011369405330947626,0.011369405330947626,0.00028872355939687464,0.00028872355939687464,0.00028872355939687464,0.00028872355939687464,2.2578444880795607,2.2578444880795607,2.2578444880795607,2.2578444880795607,95.0,95.0,95.0,95.0,1,3
0,0.03739082714161844,0.03739082714161844,0.03739082714161844,0.03739082714161844,73.0,73.0,73.0,73.0,0.027437493394275803,0.027437493394275803,0.027437493394275803,0.027437493394275803,0.0013980736456343733,0.0013980736456343733,0.0013980736456343733,0.0013980736456343733,5.806517384273592,5.806517384273592,5.806517384273592,5.806517384273592,93.0,93.0,93.0,93.0,1,2
0,0.018573130528424794,0.018573130528424794,0.018573130528424794,0.018573130528424794,74.0,74.0,74.0,74.0,0.014363515968832667,0.014363515968832667,0.014363515968832667,0.014363515968832667,0.0003449237201716554,0.0003449237201716554,0.0003449237201716554,0.0003449237201716554,3.2496444213430804,3.2496444213430804,3.2496444213430804,3.2496444213430804,99.0,99.0,99.0,99.0,1,1
0,0.00781857910303264,0.00781857910303264,0.00781857910303264,0.00781857910303264,63.0,63.0,63.0,63.0,0.006155964580862322,0.006155964580862322,0.006155964580862322,0.006155964580862322,6.105055722241957e-05,6.105055722241957e-05,6.105055722241957e-05,6.105055722241957e-05,1.2794231159504368,1.2794231159504368,1.2794231159504368,1.2794231159504368,100.0,100.0,100.0,100.0,1,4
0,0.05404308827308829,0.05404308827308829,0.05404308827308829,0.05404308827308829,83.0,83.0,83.0,83.0,0.03835579732222711,0.03835579732222711,0.03835579732222711,0.03835579732222711,0.0029204020908679485,0.0029204020908679485,0.0029204020908679485,0.0029204020908679485,9.296883777374642,9.296883777374642,9.296883777374642,9.296883777374642,101.0,101.0,101.0,101.0,1,5
0,0.06678016360713415,0.06678016360713415,0.06678016360713415,0.06678016360713415,75.0,75.0,75.0,75.0,0.051052872615944364,0.051052872615944364,0.051052872615944364,0.051052872615944364,0.004459339360584661,0.004459339360584661,0.004459339360584661,0.004459339360584661,12.197229776164411,12.197229776164411,12.197229776164411,12.197229776164411,93.0,93.0,93.0,93.0,1,5
0,0.014001899824280595,0.014001899824280595,0.014001899824280595,0.014001899824280595,68.0,68.0,68.0,68.0,0.0103912042490275,0.0103912042490275,0.0103912042490275,0.0103912042490275,0.00019600913474835343,0.00019600913474835343,0.00019600913474835343,0.00019600913474835343,2.199820952299139,2.199820952299139,2.199820952299139,2.199820952299139,93.0,93.0,93.0,93.0,1,6
0,0.006317709090709351,0.006317709090709351,0.006317709090709351,0.006317709090709351,78.0,78.0,78.0,78.0,0.0047792898989587615,0.0047792898989587615,0.0047792898989587615,0.0047792898989587615,3.990641578101452e-05,3.990641578101452e-05,3.990641578101452e-05,3.990641578101452e-05,1.0810517374247157,1.0810517374247157,1.0810517374247157,1.0810517374247157,107.0,107.0,107.0,107.0,1,4
0,0.02037724126438925,0.02037724126438925,0.02037724126438925,0.02037724126438925,70.0,70.0,70.0,70.0,0.01573439082849394,0.01573439082849394,0.01573439082849394,0.01573439082849394,0.0004150656165202909,0.0004150656165202909,0.0004150656165202909,0.0004150656165202909,3.4046862557496933,3.4046862557496933,3.4046862557496933,3.4046862557496933,103.0,103.0,103.0,103.0,1,1
0,0.014776030271608797,0.014776030271608797,0.014776030271608797,0.014776030271608797,68.0,68.0,68.0,68.0,0.01121138318168347,0.01121138318168347,0.01121138318168347,0.01121138318168347,0.00021816252280433012,0.00021816252280433012,0.00021816252280433012,0.00021816252280433012,2.3704632768750624,2.3704632768750624,2.3704632768750624,2.3704632768750624,95.0,95.0,95.0,95.0,1,2
0,0.006839954613632404,0.006839954613632404,0.006839954613632404,0.006839954613632404,62.0,62.0,62.0,62.0,0.0049216576012336,0.0049216576012336,0.0049216576012336,0.0049216576012336,4.677837108826409e-05,4.677837108826409e-05,4.677837108826409e-05,4.677837108826409e-05,0.9954604373386269,0.9954604373386269,0.9954604373386269,0.9954604373386269,90.0,90.0,90.0,90.0,1,3
0,0.007077951644059389,0.007077951644059389,0.007077951644059389,0.007077951644059389,68.0,68.0,68.0,68.0,0.005450010182670875,0.005450010182670875,0.005450010182670875,0.005450010182670875,5.009737451498491e-05,5.009737451498491e-05,5.009737451498491e-05,5.009737451498491e-05,1.134588044032734,1.134588044032734,1.134588044032734,1.134588044032734,94.0,94.0,94.0,94.0,1,4
0,0.016162407933189193,0.016162407933189193,0.016162407933189193,0.016162407933189193,82.0,82.0,82.0,82.0,0.012039647629467902,0.012039647629467902,0.012039647629467902,0.012039647629467902,0.00026118938890224114,0.00026118938890224114,0.00026118938890224114,0.00026118938890224114,2.808323488417682,2.808323488417682,2.808323488417682,2.808323488417682,109.0,109.0,109.0,109.0,1,6
0,0.006991235541831582,0.006991235541831582,0.006991235541831582,0.006991235541831582,60.0,60.0,60.0,60.0,0.0053095996785975565,0.0053095996785975565,0.0053095996785975565,0.0053095996785975565,4.886540658807943e-05,4.886540658807943e-05,4.886540658807943e-05,4.886540658807943e-05,1.0103866702290398,1.0103866702290398,1.0103866702290398,1.0103866702290398,97.0,97.0,97.0,97.0,1,3
0,0.01732036805320366,0.01732036805320366,0.01732036805320366,0.01732036805320366,74.0,74.0,74.0,74.0,0.013544412698331105,0.013544412698331105,0.013544412698331105,0.013544412698331105,0.00029999391845585556,0.00029999391845585556,0.00029999391845585556,0.00029999391845585556,2.913826556192602,2.913826556192602,2.913826556192602,2.913826556192602,102.0,102.0,102.0,102.0,1,2
0,0.022232908873527014,0.022232908873527014,0.022232908873527014,0.022232908873527014,83.0,83.0,83.0,83.0,0.0156844709822206,0.0156844709822206,0.0156844709822206,0.0156844709822206,0.0004942536199969189,0.0004942536199969189,0.0004942536199969189,0.0004942536199969189,3.5107345632616873,3.5107345632616873,3.5107345632616873,3.5107345632616873,104.0,104.0,104.0,104.0,1,1
0,0.05590701824600524,0.05590701824600524,0.05590701824600524,0.05590701824600524,82.0,82.0,82.0,82.0,0.042053458405998494,0.042053458405998494,0.042053458405998494,0.042053458405998494,0.0031254775669735126,0.0031254775669735126,0.0031254775669735126,0.0031254775669735126,10.314468621658982,10.314468621658982,10.314468621658982,10.314468621658982,105.0,105.0,105.0,105.0,1,5
0,0.01252453319176741,0.01252453319176741,0.01252453319176741,0.01252453319176741,72.0,72.0,72.0,72.0,0.009035787880005842,0.009035787880005842,0.009035787880005842,0.009035787880005842,0.00015681526784017428,0.00015681526784017428,0.00015681526784017428,0.00015681526784017428,2.2064699092092623,2.2064699092092623,2.2064699092092623,2.2064699092092623,108.0,108.0,108.0,108.0,1,6
0,0.006148575885164465,0.006148575885164465,0.006148575885164465,0.006148575885164465,66.0,66.0,66.0,66.0,0.004598800628353466,0.004598800628353466,0.004598800628353466,0.004598800628353466,3.7748778698626724e-05,3.7748778698626724e-05,3.7748778698626724e-05,3.7748778698626724e-05,1.0503746071808977,1.0503746071808977,1.0503746071808977,1.0503746071808977,109.0,109.0,109.0,109.0,1,4
0,0.05225713059481309,0.05225713059481309,0.05225713059481309,0.05225713059481309,81.0,81.0,81.0,81.0,0.03805407595738609,0.03805407595738609,0.03805407595738609,0.03805407595738609,0.002730805668625667,0.002730805668625667,0.002730805668625667,0.002730805668625667,9.284223583892192,9.284223583892192,9.284223583892192,9.284223583892192,89.0,89.0,89.0,89.0,1,5
0,0.009445071295327801,0.009445071295327801,0.009445071295327801,0.009445071295327801,56.0,56.0,56.0,56.0,0.005856473263760771,0.005856473263760771,0.005856473263760771,0.005856473263760771,8.920935912099168e-05,8.920935912099168e-05,8.920935912099168e-05,8.920935912099168e-05,1.1652954950827061,1.1652954950827061,1.1652954950827061,1.1652954950827061,95.0,95.0,95.0,95.0,1,3
0,0.02698618564340192,0.02698618564340192,0.02698618564340192,0.02698618564340192,66.0,66.0,66.0,66.0,0.0199516020868916,0.0199516020868916,0.0199516020868916,0.0199516020868916,0.000728249498930589,0.000728249498930589,0.000728249498930589,0.000728249498930589,4.070784855884988,4.070784855884988,4.070784855884988,4.070784855884988,79.0,79.0,79.0,79.0,1,2
0,0.021718602484002786,0.021718602484002786,0.021718602484002786,0.021718602484002786,78.0,78.0,78.0,78.0,0.016474503982516157,0.016474503982516157,0.016474503982516157,0.016474503982516157,0.0004716189008086319,0.0004716189008086319,0.0004716189008086319,0.0004716189008086319,3.7479475817665797,3.7479475817665797,3.7479475817665797,3.7479475817665797,99.0,99.0,99.0,99.0,1,1
0,0.016109550424820752,0.016109550424820752,0.016109550424820752,0.016109550424820752,67.0,67.0,67.0,67.0,0.01233027925733984,0.01233027925733984,0.01233027925733984,0.01233027925733984,0.000259466273883037,0.000259466273883037,0.000259466273883037,0.000259466273883037,2.587930346592759,2.587930346592759,2.587930346592759,2.587930346592759,91.0,91.0,91.0,91.0,1,2
0,0.052683833767444226,0.052683833767444226,0.052683833767444226,0.052683833767444226,84.0,84.0,84.0,84.0,0.04010921950549555,0.04010921950549555,0.04010921950549555,0.04010921950549555,0.0027755832882328307,0.0027755832882328307,0.0027755832882328307,0.0027755832882328307,9.695829361755319,9.695829361755319,9.695829361755319,9.695829361755319,95.0,95.0,95.0,95.0,1,5
0,0.012738819610085198,0.012738819610085198,0.012738819610085198,0.012738819610085198,72.0,72.0,72.0,72.0,0.009784425841230876,0.009784425841230876,0.009784425841230876,0.009784425841230876,0.0001622733694234132,0.0001622733694234132,0.0001622733694234132,0.0001622733694234132,2.194741533536132,2.194741533536132,2.194741533536132,2.194741533536132,100.0,100.0,100.0,100.0,1,1
0,0.007976449345957324,0.007976449345957324,0.007976449345957324,0.007976449345957324,71.0,71.0,71.0,71.0,0.005780486280916697,0.005780486280916697,0.005780486280916697,0.005780486280916697,6.358719181699363e-05,6.358719181699363e-05,6.358719181699363e-05,6.358719181699363e-05,1.275566687669321,1.275566687669321,1.275566687669321,1.275566687669321,101.0,101.0,101.0,101.0,1,6
0,0.00784911070301686,0.00784911070301686,0.00784911070301686,0.00784911070301686,59.0,59.0,59.0,59.0,0.005932766704938275,0.005932766704938275,0.005932766704938275,0.005932766704938275,6.160400801284119e-05,6.160400801284119e-05,6.160400801284119e-05,6.160400801284119e-05,1.080715867040755,1.080715867040755,1.080715867040755,1.080715867040755,89.0,89.0,89.0,89.0,1,4
0,0.003457635969671833,0.003457635969671833,0.003457635969671833,0.003457635969671833,57.0,57.0,57.0,57.0,0.002784936263369227,0.002784936263369227,0.002784936263369227,0.002784936263369227,1.1867143448356665e-05,1.1867143448356665e-05,1.1867143448356665e-05,1.1867143448356665e-05,0.4737806106012015,0.4737806106012015,0.4737806106012015,0.4737806106012015,89.0,89.0,89.0,89.0,1,3
0,0.022462720015742236,0.022462720015742236,0.022462720015742236,0.022462720015742236,60.0,60.0,60.0,60.0,0.016064948212958313,0.016064948212958313,0.016064948212958313,0.016064948212958313,0.0005045723636099273,0.0005045723636099273,0.0005045723636099273,0.0005045723636099273,3.178577548614002,3.178577548614002,3.178577548614002,3.178577548614002,98.0,98.0,98.0,98.0,1,2
0,0.017904737405357647,0.017904737405357647,0.017904737405357647,0.017904737405357647,71.0,71.0,71.0,71.0,0.013407378736590321,0.013407378736590321,0.013407378736590321,0.013407378736590321,0.00032057303577792874,0.00032057303577792874,0.00032057303577792874,0.00032057303577792874,3.2444306900541853,3.2444306900541853,3.2444306900541853,3.2444306900541853,98.0,98.0,98.0,98.0,1,1
0,0.010314622033601865,0.010314622033601865,0.010314622033601865,0.010314622033601865,63.0,63.0,63.0,63.0,0.007844745645585788,0.007844745645585788,0.007844745645585788,0.007844745645585788,0.00010636281658788695,0.00010636281658788695,0.00010636281658788695,0.00010636281658788695,1.5209667765396855,1.5209667765396855,1.5209667765396855,1.5209667765396855,83.0,83.0,83.0,83.0,1,4
0,0.009327308753034553,0.009327308753034553,0.009327308753034553,0.009327308753034553,75.0,75.0,75.0,75.0,0.006922940102895112,0.006922940102895112,0.006922940102895112,0.006922940102895112,8.698871223237189e-05,8.698871223237189e-05,8.698871223237189e-05,8.698871223237189e-05,1.6797158437636637,1.6797158437636637,1.6797158437636637,1.6797158437636637,103.0,103.0,103.0,103.0,1,6
0,0.057767872005490384,0.057767872005490384,0.057767872005490384,0.057767872005490384,83.0,83.0,83.0,83.0,0.04368199420831882,0.04368199420831882,0.04368199420831882,0.04368199420831882,0.0033362800488153143,0.0033362800488153143,0.0033362800488153143,0.0033362800488153143,10.628781452958926,10.628781452958926,10.628781452958926,10.628781452958926,101.0,101.0,101.0,101.0,1,5
0,0.008221077796112536,0.008221077796112536,0.008221077796112536,0.008221077796112536,66.0,66.0,66.0,66.0,0.005967026949020553,0.005967026949020553,0.005967026949020553,0.005967026949020553,6.758478469634868e-05,6.758478469634868e-05,6.758478469634868e-05,6.758478469634868e-05,1.1554460551106418,1.1554460551106418,1.1554460551106418,1.1554460551106418,90.0,90.0,90.0,90.0,1,3
0,0.007105348611849961,0.007105348611849961,0.007105348611849961,0.007105348611849961,82.0,82.0,82.0,82.0,0.004803330955271263,0.004803330955271263,0.004803330955271263,0.004803330955271263,5.047943114176449e-05,5.047943114176449e-05,5.047943114176449e-05,5.047943114176449e-05,1.1326967566148816,1.1326967566148816,1.1326967566148816,1.1326967566148816,100.0,100.0,100.0,100.0,1,6
0,0.008032069186865595,0.008032069186865595,0.008032069186865595,0.008032069186865595,57.0,57.0,57.0,57.0,0.005412891161656133,0.005412891161656133,0.005412891161656133,0.005412891161656133,6.420583424676702e-05,6.420583424676702e-05,6.420583424676702e-05,6.420583424676702e-05,1.0974631709440081,1.0974631709440081,1.0974631709440081,1.0974631709440081,92.0,92.0,92.0,92.0,1,3
0,0.01120697669863614,0.01120697669863614,0.01120697669863614,0.01120697669863614,89.0,89.0,89.0,89.0,0.008485793656407918,0.008485793656407918,0.008485793656407918,0.008485793656407918,0.000125465012124916,0.000125465012124916,0.000125465012124916,0.000125465012124916,2.0460916618382927,2.0460916618382927,2.0460916618382927,2.0460916618382927,109.0,109.0,109.0,109.0,1,1
0,0.009189992790817355,0.009189992790817355,0.009189992790817355,0.009189992790817355,69.0,69.0,69.0,69.0,0.0071283227563346645,0.0071283227563346645,0.0071283227563346645,0.0071283227563346645,8.442995197921556e-05,8.442995197921556e-05,8.442995197921556e-05,8.442995197921556e-05,1.4701421995038817,1.4701421995038817,1.4701421995038817,1.4701421995038817,91.0,91.0,91.0,91.0,1,4
0,0.046489103732195655,0.046489103732195655,0.046489103732195655,0.046489103732195655,87.0,87.0,87.0,87.0,0.03515546056918768,0.03515546056918768,0.03515546056918768,0.03515546056918768,0.0021612362787855567,0.0021612362787855567,0.0021612362787855567,0.0021612362787855567,9.100354588594158,9.100354588594158,9.100354588594158,9.100354588594158,112.0,112.0,112.0,112.0,1,5
0,0.016036950554957796,0.016036950554957796,0.016036950554957796,0.016036950554957796,69.0,69.0,69.0,69.0,0.012349304415088923,0.012349304415088923,0.012349304415088923,0.012349304415088923,0.00025716590826259345,0.00025716590826259345,0.00025716590826259345,0.00025716590826259345,2.5930367118564375,2.5930367118564375,2.5930367118564375,2.5930367118564375,97.0,97.0,97.0,97.0,1,2
0,0.015148976327193331,0.015148976327193331,0.015148976327193331,0.015148976327193331,61.0,61.0,61.0,61.0,0.010239790347520521,0.010239790347520521,0.010239790347520521,0.010239790347520521,0.00022948595683289504,0.00022948595683289504,0.00022948595683289504,0.00022948595683289504,1.935718938944628,1.935718938944628,1.935718938944628,1.935718938944628,94.0,94.0,94.0,94.0,1,3
0,0.011248710835638671,0.011248710835638671,0.011248710835638671,0.011248710835638671,74.0,74.0,74.0,74.0,0.008671607478419012,0.008671607478419012,0.008671607478419012,0.008671607478419012,0.0001264454091294829,0.0001264454091294829,0.0001264454091294829,0.0001264454091294829,1.992740928657116,1.992740928657116,1.992740928657116,1.992740928657116,113.0,113.0,113.0,113.0,1,1
0,0.013352482585938878,0.013352482585938878,0.013352482585938878,0.013352482585938878,84.0,84.0,84.0,84.0,0.009569452917230544,0.009569452917230544,0.009569452917230544,0.009569452917230544,0.00017825148799210526,0.00017825148799210526,0.00017825148799210526,0.00017825148799210526,2.2957046797117844,2.2957046797117844,2.2957046797117844,2.2957046797117844,99.0,99.0,99.0,99.0,1,6
0,0.01960165916587442,0.01960165916587442,0.01960165916587442,0.01960165916587442,64.0,64.0,64.0,64.0,0.014629049879271255,0.014629049879271255,0.014629049879271255,0.014629049879271255,0.0003837463767778322,0.0003837463767778322,0.0003837463767778322,0.0003837463767778322,2.965403959594632,2.965403959594632,2.965403959594632,2.965403959594632,103.0,103.0,103.0,103.0,1,2
0,0.044728564789830276,0.044728564789830276,0.044728564789830276,0.044728564789830276,85.0,85.0,85.0,85.0,0.033094252224129546,0.033094252224129546,0.033094252224129546,0.033094252224129546,0.0020006393912975384,0.0020006393912975384,0.0020006393912975384,0.0020006393912975384,8.490592027690491,8.490592027690491,8.490592027690491,8.490592027690491,104.0,104.0,104.0,104.0,1,5
0,0.007005856167149149,0.007005856167149149,0.007005856167149149,0.007005856167149149,73.0,73.0,73.0,73.0,0.005427098772723459,0.005427098772723459,0.005427098772723459,0.005427098772723459,4.906933388840179e-05,4.906933388840179e-05,4.906933388840179e-05,4.906933388840179e-05,1.156693111897745,1.156693111897745,1.156693111897745,1.156693111897745,94.0,94.0,94.0,94.0,1,4
0,0.004640251886579956,0.004640251886579956,0.004640251886579956,0.004640251886579956,65.0,65.0,65.0,65.0,0.0035334943970981515,0.0035334943970981515,0.0035334943970981515,0.0035334943970981515,2.152389798537904e-05,2.152389798537904e-05,2.152389798537904e-05,2.152389798537904e-05,0.6145183259870076,0.6145183259870076,0.6145183259870076,0.6145183259870076,91.0,91.0,91.0,91.0,1,3
0,0.02146206651129639,0.02146206651129639,0.02146206651129639,0.02146206651129639,60.0,60.0,60.0,60.0,0.015951570999608786,0.015951570999608786,0.015951570999608786,0.015951570999608786,0.00046039461099585253,0.00046039461099585253,0.00046039461099585253,0.00046039461099585253,3.353501356094979,3.353501356094979,3.353501356094979,3.353501356094979,103.0,103.0,103.0,103.0,1,2
0,0.006264399255840861,0.006264399255840861,0.006264399255840861,0.006264399255840861,83.0,83.0,83.0,83.0,0.00482927449672689,0.00482927449672689,0.00482927449672689,0.00482927449672689,3.9236326161529624e-05,3.9236326161529624e-05,3.9236326161529624e-05,3.9236326161529624e-05,1.0590115329999417,1.0590115329999417,1.0590115329999417,1.0590115329999417,104.0,104.0,104.0,104.0,1,6
0,0.01480431989221493,0.01480431989221493,0.01480431989221493,0.01480431989221493,72.0,72.0,72.0,72.0,0.01131563225028073,0.01131563225028073,0.01131563225028073,0.01131563225028073,0.0002191525772671684,0.0002191525772671684,0.0002191525772671684,0.0002191525772671684,2.44936099209762,2.44936099209762,2.44936099209762,2.44936099209762,100.0,100.0,100.0,100.0,1,1
0,0.007225874809253819,0.007225874809253819,0.007225874809253819,0.007225874809253819,68.0,68.0,68.0,68.0,0.005034338080236736,0.005034338080236736,0.005034338080236736,0.005034338080236736,5.214530397911396e-05,5.214530397911396e-05,5.214530397911396e-05,5.214530397911396e-05,1.0504760691046764,1.0504760691046764,1.0504760691046764,1.0504760691046764,91.0,91.0,91.0,91.0,1,4
0,0.042544178736318015,0.042544178736318015,0.042544178736318015,0.042544178736318015,72.0,72.0,72.0,72.0,0.029342799624345904,0.029342799624345904,0.029342799624345904,0.029342799624345904,0.0018099643460236573,0.0018099643460236573,0.0018099643460236573,0.0018099643460236573,7.158307061742992,7.158307061742992,7.158307061742992,7.158307061742992,107.0,107.0,107.0,107.0,1,5
0,0.009509863089116543,0.009509863089116543,0.009509863089116543,0.009509863089116543,71.0,71.0,71.0,71.0,0.006805694547027397,0.006805694547027397,0.006805694547027397,0.006805694547027397,9.022922880199305e-05,9.022922880199305e-05,9.022922880199305e-05,9.022922880199305e-05,1.272521185674279,1.272521185674279,1.272521185674279,1.272521185674279,90.0,90.0,90.0,90.0,1,4
0,0.005604167009487206,0.005604167009487206,0.005604167009487206,0.005604167009487206,62.0,62.0,62.0,62.0,0.00425624258384028,0.00425624258384028,0.00425624258384028,0.00425624258384028,3.136896643146114e-05,3.136896643146114e-05,3.136896643146114e-05,3.136896643146114e-05,0.7603820504545584,0.7603820504545584,0.7603820504545584,0.7603820504545584,90.0,90.0,90.0,90.0,1,3
0,0.015511073636644095,0.015511073636644095,0.015511073636644095,0.015511073636644095,78.0,78.0,78.0,78.0,0.012029156470442668,0.012029156470442668,0.012029156470442668,0.012029156470442668,0.00024048599743904222,0.00024048599743904222,0.00024048599743904222,0.00024048599743904222,2.923269584220776,2.923269584220776,2.923269584220776,2.923269584220776,108.0,108.0,108.0,108.0,1,1
0,0.03125512706791527,0.03125512706791527,0.03125512706791527,0.03125512706791527,70.0,70.0,70.0,70.0,0.023536473291982524,0.023536473291982524,0.023536473291982524,0.023536473291982524,0.0009761765283544461,0.0009761765283544461,0.0009761765283544461,0.0009761765283544461,4.892036178326595,4.892036178326595,4.892036178326595,4.892036178326595,90.0,90.0,90.0,90.0,1,5
0,0.025165920566057348,0.025165920566057348,0.025165920566057348,0.025165920566057348,61.0,61.0,61.0,61.0,0.018111245413030292,0.018111245413030292,0.018111245413030292,0.018111245413030292,0.0006332696991078324,0.0006332696991078324,0.0006332696991078324,0.0006332696991078324,3.4359906438608956,3.4359906438608956,3.4359906438608956,3.4359906438608956,78.0,78.0,78.0,78.0,1,2
0,0.008939995554750743,0.008939995554750743,0.008939995554750743,0.008939995554750743,71.0,71.0,71.0,71.0,0.005883335532244393,0.005883335532244393,0.005883335532244393,0.005883335532244393,7.992350448054554e-05,7.992350448054554e-05,7.992350448054554e-05,7.992350448054554e-05,1.3184346397015734,1.3184346397015734,1.3184346397015734,1.3184346397015734,90.0,90.0,90.0,90.0,1,6
0,0.008195337657677975,0.008195337657677975,0.008195337657677975,0.008195337657677975,69.0,69.0,69.0,69.0,0.006367677413882531,0.006367677413882531,0.006367677413882531,0.006367677413882531,6.714883705693023e-05,6.714883705693023e-05,6.714883705693023e-05,6.714883705693023e-05,1.4892248068747782,1.4892248068747782,1.4892248068747782,1.4892248068747782,104.0,104.0,104.0,104.0,1,6
0,0.030008969479235096,0.030008969479235096,0.030008969479235096,0.030008969479235096,61.0,61.0,61.0,61.0,0.021953310469027546,0.021953310469027546,0.021953310469027546,0.021953310469027546,0.0009000619450391194,0.0009000619450391194,0.0009000619450391194,0.0009000619450391194,4.691552980971446,4.691552980971446,4.691552980971446,4.691552980971446,97.0,97.0,97.0,97.0,1,2
0,0.04110623218676326,0.04110623218676326,0.04110623218676326,0.04110623218676326,78.0,78.0,78.0,78.0,0.029086259795150483,0.029086259795150483,0.029086259795150483,0.029086259795150483,0.0016892273007913766,0.0016892273007913766,0.0016892273007913766,0.0016892273007913766,6.964822617026789,6.964822617026789,6.964822617026789,6.964822617026789,103.0,103.0,103.0,103.0,1,5
0,0.012397389015245331,0.012397389015245331,0.012397389015245331,0.012397389015245331,82.0,82.0,82.0,82.0,0.009297471822024651,0.009297471822024651,0.009297471822024651,0.009297471822024651,0.0001536625202241786,0.0001536625202241786,0.0001536625202241786,0.0001536625202241786,2.2510629323912754,2.2510629323912754,2.2510629323912754,2.2510629323912754,117.0,117.0,117.0,117.0,1,1
0,0.005157922776945855,0.005157922776945855,0.005157922776945855,0.005157922776945855,64.0,64.0,64.0,64.0,0.0038228819163391137,0.0038228819163391137,0.0038228819163391137,0.0038228819163391137,2.6604032850464585e-05,2.6604032850464585e-05,2.6604032850464585e-05,2.6604032850464585e-05,0.6981159004974842,0.6981159004974842,0.6981159004974842,0.6981159004974842,92.0,92.0,92.0,92.0,1,3
0,0.007361063363302134,0.007361063363302134,0.007361063363302134,0.007361063363302134,61.0,61.0,61.0,61.0,0.005506596556127996,0.005506596556127996,0.005506596556127996,0.005506596556127996,5.4158503209019123e-05,5.4158503209019123e-05,5.4158503209019123e-05,5.4158503209019123e-05,1.065208683136386,1.065208683136386,1.065208683136386,1.065208683136386,87.0,87.0,87.0,87.0,1,4
0,0.0049433775179839445,0.0049433775179839445,0.0049433775179839445,0.0049433775179839445,60.0,60.0,60.0,60.0,0.00394110374544289,0.00394110374544289,0.00394110374544289,0.00394110374544289,2.4436975629145534e-05,2.4436975629145534e-05,2.4436975629145534e-05,2.4436975629145534e-05,0.7725078704657569,0.7725078704657569,0.7725078704657569,0.7725078704657569,100.0,100.0,100.0,100.0,1,4
0,0.019887863257656922,0.019887863257656922,0.019887863257656922,0.019887863257656922,65.0,65.0,65.0,65.0,0.015010322123778237,0.015010322123778237,0.015010322123778237,0.015010322123778237,0.00039552710443956877,0.00039552710443956877,0.00039552710443956877,0.00039552710443956877,3.2057950909226145,3.2057950909226145,3.2057950909226145,3.2057950909226145,95.0,95.0,95.0,95.0,1,2
0,0.006100715768933804,0.006100715768933804,0.006100715768933804,0.006100715768933804,69.0,69.0,69.0,69.0,0.004056540572962927,0.004056540572962927,0.004056540572962927,0.004056540572962927,3.719871998527379e-05,3.719871998527379e-05,3.719871998527379e-05,3.719871998527379e-05,0.8048313911129408,0.8048313911129408,0.8048313911129408,0.8048313911129408,105.0,105.0,105.0,105.0,1,3
0,0.03523758141026587,0.03523758141026587,0.03523758141026587,0.03523758141026587,70.0,70.0,70.0,70.0,0.025189216491166774,0.025189216491166774,0.025189216491166774,0.025189216491166774,0.0012414602514590986,0.0012414602514590986,0.0012414602514590986,0.0012414602514590986,5.821333016947235,5.821333016947235,5.821333016947235,5.821333016947235,94.0,94.0,94.0,94.0,1,5
0,0.010125090388893304,0.010125090388893304,0.010125090388893304,0.010125090388893304,68.0,68.0,68.0,68.0,0.007847890155881465,0.007847890155881465,0.007847890155881465,0.007847890155881465,0.00010251745523233945,0.00010251745523233945,0.00010251745523233945,0.00010251745523233945,1.6526075436939034,1.6526075436939034,1.6526075436939034,1.6526075436939034,98.0,98.0,98.0,98.0,1,1
0,0.00707085814399094,0.00707085814399094,0.00707085814399094,0.00707085814399094,85.0,85.0,85.0,85.0,0.0050193486017080765,0.0050193486017080765,0.0050193486017080765,0.0050193486017080765,4.9981526198130615e-05,4.9981526198130615e-05,4.9981526198130615e-05,4.9981526198130615e-05,1.2058408260630815,1.2058408260630815,1.2058408260630815,1.2058408260630815,102.0,102.0,102.0,102.0,1,6
0,0.06591998167015692,0.06591998167015692,0.06591998167015692,0.06591998167015692,89.0,89.0,89.0,89.0,0.04703552603800784,0.04703552603800784,0.04703552603800784,0.04703552603800784,0.004344671757455197,0.004344671757455197,0.004344671757455197,0.004344671757455197,12.022109152295537,12.022109152295537,12.022109152295537,12.022109152295537,113.0,113.0,113.0,113.0,1,5
0,0.004550051788546707,0.004550051788546707,0.004550051788546707,0.004550051788546707,66.0,66.0,66.0,66.0,0.0031820428031597825,0.0031820428031597825,0.0031820428031597825,0.0031820428031597825,2.069994293791783e-05,2.069994293791783e-05,2.069994293791783e-05,2.069994293791783e-05,0.6547260015751911,0.6547260015751911,0.6547260015751911,0.6547260015751911,108.0,108.0,108.0,108.0,1,3
0,0.025343843856874177,0.025343843856874177,0.025343843856874177,0.025343843856874177,67.0,67.0,67.0,67.0,0.019379552237046984,0.019379552237046984,0.019379552237046984,0.019379552237046984,0.0006422826063053149,0.0006422826063053149,0.0006422826063053149,0.0006422826063053149,3.90086713785874,3.90086713785874,3.90086713785874,3.90086713785874,90.0,90.0,90.0,90.0,1,2
0,0.011723647638131563,0.011723647638131563,0.011723647638131563,0.011723647638131563,66.0,66.0,66.0,66.0,0.009225217263027316,0.009225217263027316,0.009225217263027316,0.009225217263027316,0.0001374408953009908,0.0001374408953009908,0.0001374408953009908,0.0001374408953009908,1.9611048673203837,1.9611048673203837,1.9611048673203837,1.9611048673203837,95.0,95.0,95.0,95.0,1,1
0,0.006991861671242118,0.006991861671242118,0.006991861671242118,0.006991861671242118,55.0,55.0,55.0,55.0,0.005619609090975657,0.005619609090975657,0.005619609090975657,0.005619609090975657,4.878278946656751e-05,4.878278946656751e-05,4.878278946656751e-05,4.878278946656751e-05,1.0972642272763167,1.0972642272763167,1.0972642272763167,1.0972642272763167,82.0,82.0,82.0,82.0,1,4
0,0.011106236566357043,0.011106236566357043,0.011106236566357043,0.011106236566357043,75.0,75.0,75.0,75.0,0.00799242175621847,0.00799242175621847,0.00799242175621847,0.00799242175621847,0.00012334426299359376,0.00012334426299359376,0.00012334426299359376,0.00012334426299359376,1.8407845779574847,1.8407845779574847,1.8407845779574847,1.8407845779574847,92.0,92.0,92.0,92.0,1,6
0,0.016431620272148027,0.016431620272148027,0.016431620272148027,0.016431620272148027,83.0,83.0,83.0,83.0,0.009306123277587765,0.009306123277587765,0.009306123277587765,0.009306123277587765,0.00026999068320876133,0.00026999068320876133,0.00026999068320876133,0.00026999068320876133,2.225719060065053,2.225719060065053,2.225719060065053,2.225719060065053,104.0,104.0,104.0,104.0,1,6
0,0.02329345169748153,0.02329345169748153,0.02329345169748153,0.02329345169748153,71.0,71.0,71.0,71.0,0.017481021775165497,0.017481021775165497,0.017481021775165497,0.017481021775165497,0.0005425659264702566,0.0005425659264702566,0.0005425659264702566,0.0005425659264702566,3.815514317270403,3.815514317270403,3.815514317270403,3.815514317270403,106.0,106.0,106.0,106.0,1,2
0,0.006155383409624893,0.006155383409624893,0.006155383409624893,0.006155383409624893,71.0,71.0,71.0,71.0,0.0045788552715930984,0.0045788552715930984,0.0045788552715930984,0.0045788552715930984,3.779460991700924e-05,3.779460991700924e-05,3.779460991700924e-05,3.779460991700924e-05,0.9710365621175788,0.9710365621175788,0.9710365621175788,0.9710365621175788,107.0,107.0,107.0,107.0,1,4
0,0.0070667740946305695,0.0070667740946305695,0.0070667740946305695,0.0070667740946305695,62.0,62.0,62.0,62.0,0.004861302630158278,0.004861302630158278,0.004861302630158278,0.004861302630158278,4.9939265102000205e-05,4.9939265102000205e-05,4.9939265102000205e-05,4.9939265102000205e-05,0.9841984594305437,0.9841984594305437,0.9841984594305437,0.9841984594305437,95.0,95.0,95.0,95.0,1,3
0,0.06432857068177338,0.06432857068177338,0.06432857068177338,0.06432857068177338,85.0,85.0,85.0,85.0,0.047788054684945694,0.047788054684945694,0.047788054684945694,0.047788054684945694,0.004137920828661982,0.004137920828661982,0.004137920828661982,0.004137920828661982,11.873583351667374,11.873583351667374,11.873583351667374,11.873583351667374,107.0,107.0,107.0,107.0,1,5
0,0.013562530004658818,0.013562530004658818,0.013562530004658818,0.013562530004658818,73.0,73.0,73.0,73.0,0.010652149133684445,0.010652149133684445,0.010652149133684445,0.010652149133684445,0.0001838470115009179,0.0001838470115009179,0.0001838470115009179,0.0001838470115009179,2.3905676016903117,2.3905676016903117,2.3905676016903117,2.3905676016903117,109.0,109.0,109.0,109.0,1,1
0,0.004352454769514467,0.004352454769514467,0.004352454769514467,0.004352454769514467,60.0,60.0,60.0,60.0,0.0034156651994394437,0.0034156651994394437,0.0034156651994394437,0.0034156651994394437,1.8943861520837886e-05,1.8943861520837886e-05,1.8943861520837886e-05,1.8943861520837886e-05,0.6395252500916166,0.6395252500916166,0.6395252500916166,0.6395252500916166,94.0,94.0,94.0,94.0,1,3
0,0.009945796485584446,0.009945796485584446,0.009945796485584446,0.009945796485584446,63.0,63.0,63.0,63.0,0.007461470761298281,0.007461470761298281,0.007461470761298281,0.007461470761298281,9.890533887743825e-05,9.890533887743825e-05,9.890533887743825e-05,9.890533887743825e-05,1.53758313091256,1.53758313091256,1.53758313091256,1.53758313091256,102.0,102.0,102.0,102.0,1,1
0,0.010102189103385626,0.010102189103385626,0.010102189103385626,0.010102189103385626,74.0,74.0,74.0,74.0,0.006490969296568417,0.006490969296568417,0.006490969296568417,0.006490969296568417,0.00010192048882056081,0.00010192048882056081,0.00010192048882056081,0.00010192048882056081,1.4593111651754223,1.4593111651754223,1.4593111651754223,1.4593111651754223,106.0,106.0,106.0,106.0,1,6
0,0.0071589810745850135,0.0071589810745850135,0.0071589810745850135,0.0071589810745850135,69.0,69.0,69.0,69.0,0.0056493140745508185,0.0056493140745508185,0.0056493140745508185,0.0056493140745508185,5.114128331901599e-05,5.114128331901599e-05,5.114128331901599e-05,5.114128331901599e-05,1.1982402183025396,1.1982402183025396,1.1982402183025396,1.1982402183025396,96.0,96.0,96.0,96.0,1,4
0,0.04625682660943368,0.04625682660943368,0.04625682660943368,0.04625682660943368,79.0,79.0,79.0,79.0,0.03325191454669947,0.03325191454669947,0.03325191454669947,0.03325191454669947,0.0021386578181758027,0.0021386578181758027,0.0021386578181758027,0.0021386578181758027,7.9041593016234115,7.9041593016234115,7.9041593016234115,7.9041593016234115,109.0,109.0,109.0,109.0,1,5
0,0.028322766846332396,0.028322766846332396,0.028322766846332396,0.028322766846332396,67.0,67.0,67.0,67.0,0.021793148123871463,0.021793148123871463,0.021793148123871463,0.021793148123871463,0.0008020965274788037,0.0008020965274788037,0.0008020965274788037,0.0008020965274788037,4.988707524088304,4.988707524088304,4.988707524088304,4.988707524088304,106.0,106.0,106.0,106.0,1,2
0,0.011069135187679473,0.011069135187679473,0.011069135187679473,0.011069135187679473,72.0,72.0,72.0,72.0,0.007679528289919369,0.007679528289919369,0.007679528289919369,0.007679528289919369,0.00012252009387061572,0.00012252009387061572,0.00012252009387061572,0.00012252009387061572,1.507504541228734,1.507504541228734,1.507504541228734,1.507504541228734,89.0,89.0,89.0,89.0,1,4
0,0.05446638008376016,0.05446638008376016,0.05446638008376016,0.05446638008376016,76.0,76.0,76.0,76.0,0.03944373638033371,0.03944373638033371,0.03944373638033371,0.03944373638033371,0.00296653047861549,0.00296653047861549,0.00296653047861549,0.00296653047861549,9.371225977246244,9.371225977246244,9.371225977246244,9.371225977246244,99.0,99.0,99.0,99.0,1,5
0,0.004277511347209717,0.004277511347209717,0.004277511347209717,0.004277511347209717,74.0,74.0,74.0,74.0,0.0030187619066227287,0.0030187619066227287,0.0030187619066227287,0.0030187619066227287,1.829621429477495e-05,1.829621429477495e-05,1.829621429477495e-05,1.829621429477495e-05,0.6230665608371511,0.6230665608371511,0.6230665608371511,0.6230665608371511,107.0,107.0,107.0,107.0,1,3
0,0.030031336321746854,0.030031336321746854,0.030031336321746854,0.030031336321746854,66.0,66.0,66.0,66.0,0.01987814192267007,0.01987814192267007,0.01987814192267007,0.01987814192267007,0.0009018608955844487,0.0009018608955844487,0.0009018608955844487,0.0009018608955844487,4.425258991749212,4.425258991749212,4.425258991749212,4.425258991749212,94.0,94.0,94.0,94.0,1,2
0,0.01143369961294521,0.01143369961294521,0.01143369961294521,0.01143369961294521,72.0,72.0,72.0,72.0,0.008947768541970205,0.008947768541970205,0.008947768541970205,0.008947768541970205,0.00013049448665469548,0.00013049448665469548,0.00013049448665469548,0.00013049448665469548,1.991528770667366,1.991528770667366,1.991528770667366,1.991528770667366,104.0,104.0,104.0,104.0,1,1
0,0.016698348356378626,0.016698348356378626,0.016698348356378626,0.016698348356378626,71.0,71.0,71.0,71.0,0.012036372124134696,0.012036372124134696,0.012036372124134696,0.012036372124134696,0.00027882901270097566,0.00027882901270097566,0.00027882901270097566,0.00027882901270097566,2.7849787347740596,2.7849787347740596,2.7849787347740596,2.7849787347740596,103.0,103.0,103.0,103.0,1,6
0,0.04234633828801061,0.04234633828801061,0.04234633828801061,0.04234633828801061,87.0,87.0,87.0,87.0,0.03014697665135249,0.03014697665135249,0.03014697665135249,0.03014697665135249,0.0017931947902592392,0.0017931947902592392,0.0017931947902592392,0.0017931947902592392,7.948365472796086,7.948365472796086,7.948365472796086,7.948365472796086,99.0,99.0,99.0,99.0,1,5
0,0.026239410179127006,0.026239410179127006,0.026239410179127006,0.026239410179127006,64.0,64.0,64.0,64.0,0.0201944595225275,0.0201944595225275,0.0201944595225275,0.0201944595225275,0.0006884120285031692,0.0006884120285031692,0.0006884120285031692,0.0006884120285031692,4.208817395828296,4.208817395828296,4.208817395828296,4.208817395828296,101.0,101.0,101.0,101.0,1,2
0,0.010805644392349585,0.010805644392349585,0.010805644392349585,0.010805644392349585,69.0,69.0,69.0,69.0,0.007387546269914343,0.007387546269914343,0.007387546269914343,0.007387546269914343,0.00011675688747638793,0.00011675688747638793,0.00011675688747638793,0.00011675688747638793,1.7155814598553518,1.7155814598553518,1.7155814598553518,1.7155814598553518,100.0,100.0,100.0,100.0,1,6
0,0.0112794841534116,0.0112794841534116,0.0112794841534116,0.0112794841534116,77.0,77.0,77.0,77.0,0.00866323137013603,0.00866323137013603,0.00866323137013603,0.00866323137013603,0.000127155084891078,0.000127155084891078,0.000127155084891078,0.000127155084891078,1.885723463840785,1.885723463840785,1.885723463840785,1.885723463840785,99.0,99.0,99.0,99.0,1,1
0,0.0037870699099316046,0.0037870699099316046,0.0037870699099316046,0.0037870699099316046,64.0,64.0,64.0,64.0,0.0027969061467577393,0.0027969061467577393,0.0027969061467577393,0.0027969061467577393,1.4311669823062188e-05,1.4311669823062188e-05,1.4311669823062188e-05,1.4311669823062188e-05,0.5335101468594425,0.5335101468594425,0.5335101468594425,0.5335101468594425,103.0,103.0,103.0,103.0,1,3
0,0.007321165051942986,0.007321165051942986,0.007321165051942986,0.007321165051942986,65.0,65.0,65.0,65.0,0.005826500735721261,0.005826500735721261,0.005826500735721261,0.005826500735721261,5.35985740657029e-05,5.35985740657029e-05,5.35985740657029e-05,5.35985740657029e-05,1.1133793705275332,1.1133793705275332,1.1133793705275332,1.1133793705275332,94.0,94.0,94.0,94.0,1,4
0,0.021662892560234362,0.021662892560234362,0.021662892560234362,0.021662892560234362,80.0,80.0,80.0,80.0,0.014997153200781842,0.014997153200781842,0.014997153200781842,0.014997153200781842,0.00046901500108593644,0.00046901500108593644,0.00046901500108593644,0.00046901500108593644,3.7768373806726414,3.7768373806726414,3.7768373806726414,3.7768373806726414,105.0,105.0,105.0,105.0,1,6
0,0.04557468231596441,0.04557468231596441,0.04557468231596441,0.04557468231596441,84.0,84.0,84.0,84.0,0.03326978015067799,0.03326978015067799,0.03326978015067799,0.03326978015067799,0.0020763397976976067,0.0020763397976976067,0.0020763397976976067,0.0020763397976976067,8.224640569144311,8.224640569144311,8.224640569144311,8.224640569144311,112.0,112.0,112.0,112.0,1,5
0,0.007724029256083365,0.007724029256083365,0.007724029256083365,0.007724029256083365,72.0,72.0,72.0,72.0,0.005975864210870267,0.005975864210870267,0.005975864210870267,0.005975864210870267,5.963974093394421e-05,5.963974093394421e-05,5.963974093394421e-05,5.963974093394421e-05,1.2847988253565705,1.2847988253565705,1.2847988253565705,1.2847988253565705,90.0,90.0,90.0,90.0,1,4
0,0.02545510164410376,0.02545510164410376,0.02545510164410376,0.02545510164410376,62.0,62.0,62.0,62.0,0.019696887105563565,0.019696887105563565,0.019696887105563565,0.019696887105563565,0.0006479488348994625,0.0006479488348994625,0.0006479488348994625,0.0006479488348994625,3.8679710187630016,3.8679710187630016,3.8679710187630016,3.8679710187630016,90.0,90.0,90.0,90.0,1,2
0,0.01103935912293172,0.01103935912293172,0.01103935912293172,0.01103935912293172,85.0,85.0,85.0,85.0,0.008891936110977662,0.008891936110977662,0.008891936110977662,0.008891936110977662,0.00012180901135827669,0.00012180901135827669,0.00012180901135827669,0.00012180901135827669,2.02356882502471,2.02356882502471,2.02356882502471,2.02356882502471,116.0,116.0,116.0,116.0,1,1
0,0.0115100291830152,0.0115100291830152,0.0115100291830152,0.0115100291830152,53.0,53.0,53.0,53.0,0.006981235615842776,0.006981235615842776,0.006981235615842776,0.006981235615842776,0.00013244026066792228,0.00013244026066792228,0.00013244026066792228,0.00013244026066792228,1.228274696533393,1.228274696533393,1.228274696533393,1.228274696533393,93.0,93.0,93.0,93.0,1,3
0,0.006548011636305157,0.006548011636305157,0.006548011636305157,0.006548011636305157,62.0,62.0,62.0,62.0,0.004185849413602326,0.004185849413602326,0.004185849413602326,0.004185849413602326,4.2876418950133965e-05,4.2876418950133965e-05,4.2876418950133965e-05,4.2876418950133965e-05,0.8698788487206133,0.8698788487206133,0.8698788487206133,0.8698788487206133,97.0,97.0,97.0,97.0,1,3
0,0.011279200393060776,0.011279200393060776,0.011279200393060776,0.011279200393060776,58.0,58.0,58.0,58.0,0.008708057416037982,0.008708057416037982,0.008708057416037982,0.008708057416037982,0.0001271882933011397,0.0001271882933011397,0.0001271882933011397,0.0001271882933011397,1.551356607863132,1.551356607863132,1.551356607863132,1.551356607863132,79.0,79.0,79.0,79.0,1,4
0,0.013331765312957806,0.013331765312957806,0.013331765312957806,0.013331765312957806,57.0,57.0,57.0,57.0,0.01027075358150431,0.01027075358150431,0.01027075358150431,0.01027075358150431,0.00017773054415562003,0.00017773054415562003,0.00017773054415562003,0.00017773054415562003,1.8507720896911786,1.8507720896911786,1.8507720896911786,1.8507720896911786,89.0,89.0,89.0,89.0,1,2
0,0.02030188724280541,0.02030188724280541,0.02030188724280541,0.02030188724280541,89.0,89.0,89.0,89.0,0.01430230202337362,0.01430230202337362,0.01430230202337362,0.01430230202337362,0.0004121657101656257,0.0004121657101656257,0.0004121657101656257,0.0004121657101656257,3.6346855504954836,3.6346855504954836,3.6346855504954836,3.6346855504954836,104.0,104.0,104.0,104.0,1,6
0,0.016763673208955717,0.016763673208955717,0.016763673208955717,0.016763673208955717,70.0,70.0,70.0,70.0,0.012589618558761317,0.012589618558761317,0.012589618558761317,0.012589618558761317,0.0002809855213572148,0.0002809855213572148,0.0002809855213572148,0.0002809855213572148,2.91979844119,2.91979844119,2.91979844119,2.91979844119,103.0,103.0,103.0,103.0,1,1
0,0.05969143655207778,0.05969143655207778,0.05969143655207778,0.05969143655207778,71.0,71.0,71.0,71.0,0.041399505651516316,0.041399505651516316,0.041399505651516316,0.041399505651516316,0.0035629274456062676,0.0035629274456062676,0.0035629274456062676,0.0035629274456062676,10.2447656592209,10.2447656592209,10.2447656592209,10.2447656592209,97.0,97.0,97.0,97.0,1,5
0,0.034505160528692784,0.034505160528692784,0.034505160528692784,0.034505160528692784,76.0,76.0,76.0,76.0,0.02606614966093264,0.02606614966093264,0.02606614966093264,0.02606614966093264,0.0011906060721033184,0.0011906060721033184,0.0011906060721033184,0.0011906060721033184,5.896719127367684,5.896719127367684,5.896719127367684,5.896719127367684,94.0,94.0,94.0,94.0,1,5
0,0.016175170433951034,0.016175170433951034,0.016175170433951034,0.016175170433951034,84.0,84.0,84.0,84.0,0.011523670712181671,0.011523670712181671,0.011523670712181671,0.011523670712181671,0.00026163533370179945,0.00026163533370179945,0.00026163533370179945,0.00026163533370179945,3.0670480620737406,3.0670480620737406,3.0670480620737406,3.0670480620737406,114.0,114.0,114.0,114.0,1,6
0,0.009579404657776437,0.009579404657776437,0.009579404657776437,0.009579404657776437,67.0,67.0,67.0,67.0,0.0068513277817819525,0.0068513277817819525,0.0068513277817819525,0.0068513277817819525,9.176287871106529e-05,9.176287871106529e-05,9.176287871106529e-05,9.176287871106529e-05,1.3900793127436426,1.3900793127436426,1.3900793127436426,1.3900793127436426,97.0,97.0,97.0,97.0,1,4
0,0.017766229371180553,0.017766229371180553,0.017766229371180553,0.017766229371180553,82.0,82.0,82.0,82.0,0.013475395922303943,0.013475395922303943,0.013475395922303943,0.013475395922303943,0.00031562694457441744,0.00031562694457441744,0.00031562694457441744,0.00031562694457441744,3.2476008474327065,3.2476008474327065,3.2476008474327065,3.2476008474327065,101.0,101.0,101.0,101.0,1,1
0,0.02253284705828556,0.02253284705828556,0.02253284705828556,0.02253284705828556,59.0,59.0,59.0,59.0,0.016890992883766342,0.016890992883766342,0.016890992883766342,0.016890992883766342,0.0005076916786583504,0.0005076916786583504,0.0005076916786583504,0.0005076916786583504,3.42382273878773,3.42382273878773,3.42382273878773,3.42382273878773,94.0,94.0,94.0,94.0,1,2
0,0.009695661540679256,0.009695661540679256,0.009695661540679256,0.009695661540679256,53.0,53.0,53.0,53.0,0.006111482282106934,0.006111482282106934,0.006111482282106934,0.006111482282106934,9.394832625137438e-05,9.394832625137438e-05,9.394832625137438e-05,9.394832625137438e-05,1.1060809866047911,1.1060809866047911,1.1060809866047911,1.1060809866047911,91.0,91.0,91.0,91.0,1,3
0,0.01958801082176036,0.01958801082176036,0.01958801082176036,0.01958801082176036,78.0,78.0,78.0,78.0,0.013070126049105258,0.013070126049105258,0.013070126049105258,0.013070126049105258,0.0003836658600207292,0.0003836658600207292,0.0003836658600207292,0.0003836658600207292,2.9595741125429784,2.9595741125429784,2.9595741125429784,2.9595741125429784,99.0,99.0,99.0,99.0,1,6
0,0.007428543159706607,0.007428543159706607,0.007428543159706607,0.007428543159706607,61.0,61.0,61.0,61.0,0.005523994828432251,0.005523994828432251,0.005523994828432251,0.005523994828432251,5.516192352883385e-05,5.516192352883385e-05,5.516192352883385e-05,5.516192352883385e-05,1.103081516012474,1.103081516012474,1.103081516012474,1.103081516012474,93.0,93.0,93.0,93.0,1,4
0,0.013892391953573167,0.013892391953573167,0.013892391953573167,0.013892391953573167,69.0,69.0,69.0,69.0,0.010666117795227676,0.010666117795227676,0.010666117795227676,0.010666117795227676,0.000192954998962749,0.000192954998962749,0.000192954998962749,0.000192954998962749,2.1297849784126566,2.1297849784126566,2.1297849784126566,2.1297849784126566,98.0,98.0,98.0,98.0,1,1
0,0.004118269847218962,0.004118269847218962,0.004118269847218962,0.004118269847218962,58.0,58.0,58.0,58.0,0.0032035578783253726,0.0032035578783253726,0.0032035578783253726,0.0032035578783253726,1.690546706172737e-05,1.690546706172737e-05,1.690546706172737e-05,1.690546706172737e-05,0.6147850532906665,0.6147850532906665,0.6147850532906665,0.6147850532906665,93.0,93.0,93.0,93.0,1,3
0,0.0607537922451594,0.0607537922451594,0.0607537922451594,0.0607537922451594,82.0,82.0,82.0,82.0,0.04487089799172155,0.04487089799172155,0.04487089799172155,0.04487089799172155,0.003691015973581928,0.003691015973581928,0.003691015973581928,0.003691015973581928,11.424108968255638,11.424108968255638,11.424108968255638,11.424108968255638,115.0,115.0,115.0,115.0,1,5
0,0.020155196927100688,0.020155196927100688,0.020155196927100688,0.020155196927100688,65.0,65.0,65.0,65.0,0.014652181666706838,0.014652181666706838,0.014652181666706838,0.014652181666706838,0.0004060711338137636,0.0004060711338137636,0.0004060711338137636,0.0004060711338137636,3.2527880117857135,3.2527880117857135,3.2527880117857135,3.2527880117857135,104.0,104.0,104.0,104.0,1,2
0,0.005958341377216351,0.005958341377216351,0.005958341377216351,0.005958341377216351,63.0,63.0,63.0,63.0,0.004721968957506951,0.004721968957506951,0.004721968957506951,0.004721968957506951,3.544047231245436e-05,3.544047231245436e-05,3.544047231245436e-05,3.544047231245436e-05,0.9575534594888034,0.9575534594888034,0.9575534594888034,0.9575534594888034,96.0,96.0,96.0,96.0,1,4
0,0.00401444977068337,0.00401444977068337,0.00401444977068337,0.00401444977068337,69.0,69.0,69.0,69.0,0.002983892506878398,0.002983892506878398,0.002983892506878398,0.002983892506878398,1.6102493327580426e-05,1.6102493327580426e-05,1.6102493327580426e-05,1.6102493327580426e-05,0.6047526854775239,0.6047526854775239,0.6047526854775239,0.6047526854775239,88.0,88.0,88.0,88.0,1,3
0,0.010676357643698425,0.010676357643698425,0.010676357643698425,0.010676357643698425,59.0,59.0,59.0,59.0,0.006898854350889489,0.006898854350889489,0.006898854350889489,0.006898854350889489,0.00011396403228857121,0.00011396403228857121,0.00011396403228857121,0.00011396403228857121,1.2759022373355098,1.2759022373355098,1.2759022373355098,1.2759022373355098,100.0,100.0,100.0,100.0,1,5
0,0.010219031957665431,0.010219031957665431,0.010219031957665431,0.010219031957665431,76.0,76.0,76.0,76.0,0.007309714867045764,0.007309714867045764,0.007309714867045764,0.007309714867045764,0.00010441314831843778,0.00010441314831843778,0.00010441314831843778,0.00010441314831843778,1.7094094606482568,1.7094094606482568,1.7094094606482568,1.7094094606482568,96.0,96.0,96.0,96.0,1,6
0,0.011401994683221969,0.011401994683221969,0.011401994683221969,0.011401994683221969,68.0,68.0,68.0,68.0,0.008706583541441722,0.008706583541441722,0.008706583541441722,0.008706583541441722,0.00012999943954583864,0.00012999943954583864,0.00012999943954583864,0.00012999943954583864,1.9780126412989243,1.9780126412989243,1.9780126412989243,1.9780126412989243,97.0,97.0,97.0,97.0,1,1
0,0.0230760074396775,0.0230760074396775,0.0230760074396775,0.0230760074396775,70.0,70.0,70.0,70.0,0.01770934849452459,0.01770934849452459,0.01770934849452459,0.01770934849452459,0.0005324953200121512,0.0005324953200121512,0.0005324953200121512,0.0005324953200121512,3.6058484631903456,3.6058484631903456,3.6058484631903456,3.6058484631903456,95.0,95.0,95.0,95.0,1,2
0,0.017467574316847236,0.017467574316847236,0.017467574316847236,0.017467574316847236,79.0,79.0,79.0,79.0,0.012295112567519433,0.012295112567519433,0.012295112567519433,0.012295112567519433,0.00030493232599293723,0.00030493232599293723,0.00030493232599293723,0.00030493232599293723,2.96658697353002,2.96658697353002,2.96658697353002,2.96658697353002,116.0,116.0,116.0,116.0,1,6
0,0.008168079157069547,0.008168079157069547,0.008168079157069547,0.008168079157069547,60.0,60.0,60.0,60.0,0.005933503312117699,0.005933503312117699,0.005933503312117699,0.005933503312117699,6.666608611797462e-05,6.666608611797462e-05,6.666608611797462e-05,6.666608611797462e-05,1.2893386591192761,1.2893386591192761,1.2893386591192761,1.2893386591192761,96.0,96.0,96.0,96.0,1,3
0,0.01790711345456126,0.01790711345456126,0.01790711345456126,0.01790711345456126,67.0,67.0,67.0,67.0,0.014291733575589917,0.014291733575589917,0.014291733575589917,0.014291733575589917,0.00032063586600008896,0.00032063586600008896,0.00032063586600008896,0.00032063586600008896,3.214487357194975,3.214487357194975,3.214487357194975,3.214487357194975,102.0,102.0,102.0,102.0,1,1
0,0.020237201443577348,0.020237201443577348,0.020237201443577348,0.020237201443577348,68.0,68.0,68.0,68.0,0.015554228954961294,0.015554228954961294,0.015554228954961294,0.015554228954961294,0.000409543056945145,0.000409543056945145,0.000409543056945145,0.000409543056945145,3.1858850160500025,3.1858850160500025,3.1858850160500025,3.1858850160500025,86.0,86.0,86.0,86.0,1,2
0,0.0542137089508808,0.0542137089508808,0.0542137089508808,0.0542137089508808,78.0,78.0,78.0,78.0,0.04022317314471367,0.04022317314471367,0.04022317314471367,0.04022317314471367,0.0029390757569805496,0.0029390757569805496,0.0029390757569805496,0.0029390757569805496,9.546779511810591,9.546779511810591,9.546779511810591,9.546779511810591,98.0,98.0,98.0,98.0,1,5
0,0.010731067337104742,0.010731067337104742,0.010731067337104742,0.010731067337104742,61.0,61.0,61.0,61.0,0.007586461601599342,0.007586461601599342,0.007586461601599342,0.007586461601599342,0.00011510424752588984,0.00011510424752588984,0.00011510424752588984,0.00011510424752588984,1.5759825459096155,1.5759825459096155,1.5759825459096155,1.5759825459096155,94.0,94.0,94.0,94.0,1,4
0,0.015062181579171425,0.015062181579171425,0.015062181579171425,0.015062181579171425,81.0,81.0,81.0,81.0,0.011660160802168822,0.011660160802168822,0.011660160802168822,0.011660160802168822,0.00022686201008414552,0.00022686201008414552,0.00022686201008414552,0.00022686201008414552,2.8023805346783055,2.8023805346783055,2.8023805346783055,2.8023805346783055,105.0,105.0,105.0,105.0,1,1
0,0.00529950867271751,0.00529950867271751,0.00529950867271751,0.00529950867271751,61.0,61.0,61.0,61.0,0.0038188369997764105,0.0038188369997764105,0.0038188369997764105,0.0038188369997764105,2.8068056631000436e-05,2.8068056631000436e-05,2.8068056631000436e-05,2.8068056631000436e-05,0.747309425069399,0.747309425069399,0.747309425069399,0.747309425069399,92.0,92.0,92.0,92.0,1,3
0,0.042619667272979125,0.042619667272979125,0.042619667272979125,0.042619667272979125,66.0,66.0,66.0,66.0,0.030753344348702326,0.030753344348702326,0.030753344348702326,0.030753344348702326,0.0018164337709660895,0.0018164337709660895,0.0018164337709660895,0.0018164337709660895,6.975659020676554,6.975659020676554,6.975659020676554,6.975659020676554,102.0,102.0,102.0,102.0,1,5
0,0.015605092457636156,0.015605092457636156,0.015605092457636156,0.015605092457636156,67.0,67.0,67.0,67.0,0.010831474435495324,0.010831474435495324,0.010831474435495324,0.010831474435495324,0.00024351749103561062,0.00024351749103561062,0.00024351749103561062,0.00024351749103561062,2.1986897526402287,2.1986897526402287,2.1986897526402287,2.1986897526402287,84.0,84.0,84.0,84.0,1,4
0,0.0195074462568644,0.0195074462568644,0.0195074462568644,0.0195074462568644,70.0,70.0,70.0,70.0,0.014465400428054108,0.014465400428054108,0.014465400428054108,0.014465400428054108,0.00038050798197592785,0.00038050798197592785,0.00038050798197592785,0.00038050798197592785,2.901135657538104,2.901135657538104,2.901135657538104,2.901135657538104,93.0,93.0,93.0,93.0,1,2
0,0.008411461344377891,0.008411461344377891,0.008411461344377891,0.008411461344377891,66.0,66.0,66.0,66.0,0.006666696976518591,0.006666696976518591,0.006666696976518591,0.006666696976518591,7.075099482298266e-05,7.075099482298266e-05,7.075099482298266e-05,7.075099482298266e-05,1.4307007700047814,1.4307007700047814,1.4307007700047814,1.4307007700047814,104.0,104.0,104.0,104.0,1,6
0,0.011668186277391626,0.011668186277391626,0.011668186277391626,0.011668186277391626,88.0,88.0,88.0,88.0,0.008976687880661378,0.008976687880661378,0.008976687880661378,0.008976687880661378,0.00013611721955414507,0.00013611721955414507,0.00013611721955414507,0.00013611721955414507,2.2792667855879154,2.2792667855879154,2.2792667855879154,2.2792667855879154,120.0,120.0,120.0,120.0,1,1
0,0.04563301570623025,0.04563301570623025,0.04563301570623025,0.04563301570623025,81.0,81.0,81.0,81.0,0.032925325988247316,0.032925325988247316,0.032925325988247316,0.032925325988247316,0.0020823590855632754,0.0020823590855632754,0.0020823590855632754,0.0020823590855632754,8.392343682347548,8.392343682347548,8.392343682347548,8.392343682347548,99.0,99.0,99.0,99.0,1,5
0,0.006131107203168815,0.006131107203168815,0.006131107203168815,0.006131107203168815,70.0,70.0,70.0,70.0,0.004814171820171031,0.004814171820171031,0.004814171820171031,0.004814171820171031,3.755328910235298e-05,3.755328910235298e-05,3.755328910235298e-05,3.755328910235298e-05,1.0195757321251184,1.0195757321251184,1.0195757321251184,1.0195757321251184,98.0,98.0,98.0,98.0,1,4
0,0.010135106319487042,0.010135106319487042,0.010135106319487042,0.010135106319487042,57.0,57.0,57.0,57.0,0.006551837931146977,0.006551837931146977,0.006551837931146977,0.006551837931146977,0.00010270819972515652,0.00010270819972515652,0.00010270819972515652,0.00010270819972515652,1.1725952135378779,1.1725952135378779,1.1725952135378779,1.1725952135378779,90.0,90.0,90.0,90.0,1,3
0,0.024670082996046647,0.024670082996046647,0.024670082996046647,0.024670082996046647,76.0,76.0,76.0,76.0,0.017914145021630145,0.017914145021630145,0.017914145021630145,0.017914145021630145,0.0006086040879746754,0.0006086040879746754,0.0006086040879746754,0.0006086040879746754,4.0632284779822125,4.0632284779822125,4.0632284779822125,4.0632284779822125,96.0,96.0,96.0,96.0,1,2
0,0.01150258595479453,0.01150258595479453,0.01150258595479453,0.01150258595479453,84.0,84.0,84.0,84.0,0.008559636965806267,0.008559636965806267,0.008559636965806267,0.008559636965806267,0.00013230471091701409,0.00013230471091701409,0.00013230471091701409,0.00013230471091701409,2.0015716711433016,2.0015716711433016,2.0015716711433016,2.0015716711433016,101.0,101.0,101.0,101.0,1,6
0,0.017786624143640194,0.017786624143640194,0.017786624143640194,0.017786624143640194,67.0,67.0,67.0,67.0,0.01396484208017183,0.01396484208017183,0.01396484208017183,0.01396484208017183,0.00031635375957962913,0.00031635375957962913,0.00031635375957962913,0.00031635375957962913,2.8299208811675234,2.8299208811675234,2.8299208811675234,2.8299208811675234,98.0,98.0,98.0,98.0,1,2
0,0.009664575783959416,0.009664575783959416,0.009664575783959416,0.009664575783959416,70.0,70.0,70.0,70.0,0.007417936356810095,0.007417936356810095,0.007417936356810095,0.007417936356810095,9.339572591915871e-05,9.339572591915871e-05,9.339572591915871e-05,9.339572591915871e-05,1.5911796583677766,1.5911796583677766,1.5911796583677766,1.5911796583677766,95.0,95.0,95.0,95.0,1,6
0,0.008663478298696542,0.008663478298696542,0.008663478298696542,0.008663478298696542,62.0,62.0,62.0,62.0,0.0058846315339260566,0.0058846315339260566,0.0058846315339260566,0.0058846315339260566,7.503815259179817e-05,7.503815259179817e-05,7.503815259179817e-05,7.503815259179817e-05,1.1410245156803522,1.1410245156803522,1.1410245156803522,1.1410245156803522,95.0,95.0,95.0,95.0,1,3
0,0.009559636869394973,0.009559636869394973,0.009559636869394973,0.009559636869394973,69.0,69.0,69.0,69.0,0.006707369152411161,0.006707369152411161,0.006707369152411161,0.006707369152411161,9.138299716583935e-05,9.138299716583935e-05,9.138299716583935e-05,9.138299716583935e-05,1.4088379711159635,1.4088379711159635,1.4088379711159635,1.4088379711159635,93.0,93.0,93.0,93.0,1,4
0,0.044268460260802105,0.044268460260802105,0.044268460260802105,0.044268460260802105,79.0,79.0,79.0,79.0,0.032295776966862276,0.032295776966862276,0.032295776966862276,0.032295776966862276,0.0019596244537535127,0.0019596244537535127,0.0019596244537535127,0.0019596244537535127,8.469268066921797,8.469268066921797,8.469268066921797,8.469268066921797,116.0,116.0,116.0,116.0,1,5
0,0.014753042535899277,0.014753042535899277,0.014753042535899277,0.014753042535899277,82.0,82.0,82.0,82.0,0.011130062288203455,0.011130062288203455,0.011130062288203455,0.011130062288203455,0.00021760601229893064,0.00021760601229893064,0.00021760601229893064,0.00021760601229893064,2.5032806697027743,2.5032806697027743,2.5032806697027743,2.5032806697027743,106.0,106.0,106.0,106.0,1,1
0,0.006879337104872489,0.006879337104872489,0.006879337104872489,0.006879337104872489,59.0,59.0,59.0,59.0,0.004985385932712614,0.004985385932712614,0.004985385932712614,0.004985385932712614,4.73032950926977e-05,4.73032950926977e-05,4.73032950926977e-05,4.73032950926977e-05,0.9316532719125606,0.9316532719125606,0.9316532719125606,0.9316532719125606,93.0,93.0,93.0,93.0,1,1
0,0.020452347387850074,0.020452347387850074,0.020452347387850074,0.020452347387850074,67.0,67.0,67.0,67.0,0.015397125673014251,0.015397125673014251,0.015397125673014251,0.015397125673014251,0.0004182773376662624,0.0004182773376662624,0.0004182773376662624,0.0004182773376662624,3.169479828309134,3.169479828309134,3.169479828309134,3.169479828309134,92.0,92.0,92.0,92.0,1,2
0,0.012379727601850302,0.012379727601850302,0.012379727601850302,0.012379727601850302,75.0,75.0,75.0,75.0,0.009289430403159077,0.009289430403159077,0.009289430403159077,0.009289430403159077,0.00015324667839914817,0.00015324667839914817,0.00015324667839914817,0.00015324667839914817,2.1559480461542906,2.1559480461542906,2.1559480461542906,2.1559480461542906,96.0,96.0,96.0,96.0,1,6
0,0.009385505102720506,0.009385505102720506,0.009385505102720506,0.009385505102720506,70.0,70.0,70.0,70.0,0.007326845858113802,0.007326845858113802,0.007326845858113802,0.007326845858113802,8.803723438090556e-05,8.803723438090556e-05,8.803723438090556e-05,8.803723438090556e-05,1.434725378215548,1.434725378215548,1.434725378215548,1.434725378215548,85.0,85.0,85.0,85.0,1,4
0,0.043308947045917805,0.043308947045917805,0.043308947045917805,0.043308947045917805,82.0,82.0,82.0,82.0,0.03163777575546585,0.03163777575546585,0.03163777575546585,0.03163777575546585,0.0018755736814797402,0.0018755736814797402,0.0018755736814797402,0.0018755736814797402,7.516552318246506,7.516552318246506,7.516552318246506,7.516552318246506,104.0,104.0,104.0,104.0,1,5
0,0.01349525405509947,0.01349525405509947,0.01349525405509947,0.01349525405509947,76.0,76.0,76.0,76.0,0.008271895711898417,0.008271895711898417,0.008271895711898417,0.008271895711898417,0.00018211724454214617,0.00018211724454214617,0.00018211724454214617,0.00018211724454214617,1.657318364569488,1.657318364569488,1.657318364569488,1.657318364569488,106.0,106.0,106.0,106.0,1,3
0,0.004598254429203862,0.004598254429203862,0.004598254429203862,0.004598254429203862,49.0,49.0,49.0,49.0,0.003542554340408629,0.003542554340408629,0.003542554340408629,0.003542554340408629,2.1121144479964833e-05,2.1121144479964833e-05,2.1121144479964833e-05,2.1121144479964833e-05,0.6091756686146452,0.6091756686146452,0.6091756686146452,0.6091756686146452,94.0,94.0,94.0,94.0,1,3
0,0.0071998248739379,0.0071998248739379,0.0071998248739379,0.0071998248739379,69.0,69.0,69.0,69.0,0.005895077505621013,0.005895077505621013,0.005895077505621013,0.005895077505621013,5.1836977096954944e-05,5.1836977096954944e-05,5.1836977096954944e-05,5.1836977096954944e-05,1.1172347145155852,1.1172347145155852,1.1172347145155852,1.1172347145155852,95.0,95.0,95.0,95.0,1,1
0,0.008401649349762267,0.008401649349762267,0.008401649349762267,0.008401649349762267,65.0,65.0,65.0,65.0,0.006333111160359295,0.006333111160359295,0.006333111160359295,0.006333111160359295,7.058049657669306e-05,7.058049657669306e-05,7.058049657669306e-05,7.058049657669306e-05,1.3074480142177856,1.3074480142177856,1.3074480142177856,1.3074480142177856,94.0,94.0,94.0,94.0,1,4
0,0.03247051347529222,0.03247051347529222,0.03247051347529222,0.03247051347529222,72.0,72.0,72.0,72.0,0.0208621050339106,0.0208621050339106,0.0208621050339106,0.0208621050339106,0.0010541265001290164,0.0010541265001290164,0.0010541265001290164,0.0010541265001290164,4.675272827123406,4.675272827123406,4.675272827123406,4.675272827123406,87.0,87.0,87.0,87.0,1,6
0,0.011917200988411399,0.011917200988411399,0.011917200988411399,0.011917200988411399,56.0,56.0,56.0,56.0,0.008565755187359025,0.008565755187359025,0.008565755187359025,0.008565755187359025,0.0001418836077279765,0.0001418836077279765,0.0001418836077279765,0.0001418836077279765,1.5339234765787397,1.5339234765787397,1.5339234765787397,1.5339234765787397,87.0,87.0,87.0,87.0,1,2
0,0.01018623309330731,0.01018623309330731,0.01018623309330731,0.01018623309330731,72.0,72.0,72.0,72.0,0.007578103240009486,0.007578103240009486,0.007578103240009486,0.007578103240009486,0.00010375931626632084,0.00010375931626632084,0.00010375931626632084,0.00010375931626632084,1.5751250151916052,1.5751250151916052,1.5751250151916052,1.5751250151916052,104.0,104.0,104.0,104.0,1,5
0,0.01773950882551692,0.01773950882551692,0.01773950882551692,0.01773950882551692,63.0,63.0,63.0,63.0,0.013275404112021591,0.013275404112021591,0.013275404112021591,0.013275404112021591,0.0003146257323592429,0.0003146257323592429,0.0003146257323592429,0.0003146257323592429,2.8559551623831227,2.8559551623831227,2.8559551623831227,2.8559551623831227,102.0,102.0,102.0,102.0,1,5
0,0.007350240149505931,0.007350240149505931,0.007350240149505931,0.007350240149505931,62.0,62.0,62.0,62.0,0.005730127519877405,0.005730127519877405,0.005730127519877405,0.005730127519877405,5.4023611214078246e-05,5.4023611214078246e-05,5.4023611214078246e-05,5.4023611214078246e-05,1.1055213643862425,1.1055213643862425,1.1055213643862425,1.1055213643862425,83.0,83.0,83.0,83.0,1,4
0,0.007377440786726508,0.007377440786726508,0.007377440786726508,0.007377440786726508,46.0,46.0,46.0,46.0,0.005422288006661392,0.005422288006661392,0.005422288006661392,0.005422288006661392,5.439706933299437e-05,5.439706933299437e-05,5.439706933299437e-05,5.439706933299437e-05,0.8112287878755378,0.8112287878755378,0.8112287878755378,0.8112287878755378,79.0,79.0,79.0,79.0,1,3
0,0.038026530301541635,0.038026530301541635,0.038026530301541635,0.038026530301541635,76.0,76.0,76.0,76.0,0.026865631833595593,0.026865631833595593,0.026865631833595593,0.026865631833595593,0.001445965238554509,0.001445965238554509,0.001445965238554509,0.001445965238554509,6.1477829905303025,6.1477829905303025,6.1477829905303025,6.1477829905303025,92.0,92.0,92.0,92.0,1,6
0,0.009100260865788721,0.009100260865788721,0.009100260865788721,0.009100260865788721,54.0,54.0,54.0,54.0,0.007107723559141712,0.007107723559141712,0.007107723559141712,0.007107723559141712,8.278347629114247e-05,8.278347629114247e-05,8.278347629114247e-05,8.278347629114247e-05,1.2271926497792867,1.2271926497792867,1.2271926497792867,1.2271926497792867,91.0,91.0,91.0,91.0,1,1
0,0.008988787782237424,0.008988787782237424,0.008988787782237424,0.008988787782237424,68.0,68.0,68.0,68.0,0.007034229037693196,0.007034229037693196,0.007034229037693196,0.007034229037693196,8.077390987692744e-05,8.077390987692744e-05,8.077390987692744e-05,8.077390987692744e-05,1.4167068615103104,1.4167068615103104,1.4167068615103104,1.4167068615103104,85.0,85.0,85.0,85.0,1,2
0,0.010868644980698046,0.010868644980698046,0.010868644980698046,0.010868644980698046,74.0,74.0,74.0,74.0,0.00866126064626147,0.00866126064626147,0.00866126064626147,0.00866126064626147,0.00011808522976845318,0.00011808522976845318,0.00011808522976845318,0.00011808522976845318,1.875321796921111,1.875321796921111,1.875321796921111,1.875321796921111,102.0,102.0,102.0,102.0,1,5
0,0.008776212856842594,0.008776212856842594,0.008776212856842594,0.008776212856842594,67.0,67.0,67.0,67.0,0.006799784591256407,0.006799784591256407,0.006799784591256407,0.006799784591256407,7.697923132542787e-05,7.697923132542787e-05,7.697923132542787e-05,7.697923132542787e-05,1.3988320254888458,1.3988320254888458,1.3988320254888458,1.3988320254888458,88.0,88.0,88.0,88.0,1,2
0,0.0038575154634419738,0.0038575154634419738,0.0038575154634419738,0.0038575154634419738,50.0,50.0,50.0,50.0,0.0028548038454795006,0.0028548038454795006,0.0028548038454795006,0.0028548038454795006,1.4843768075295165e-05,1.4843768075295165e-05,1.4843768075295165e-05,1.4843768075295165e-05,0.44048863253358783,0.44048863253358783,0.44048863253358783,0.44048863253358783,95.0,95.0,95.0,95.0,1,3
0,0.006583115191592437,0.006583115191592437,0.006583115191592437,0.006583115191592437,57.0,57.0,57.0,57.0,0.005285577854922181,0.005285577854922181,0.005285577854922181,0.005285577854922181,4.323355267912011e-05,4.323355267912011e-05,4.323355267912011e-05,4.323355267912011e-05,0.9109140140582691,0.9109140140582691,0.9109140140582691,0.9109140140582691,108.0,108.0,108.0,108.0,1,1
0,0.0071057668596028615,0.0071057668596028615,0.0071057668596028615,0.0071057668596028615,47.0,47.0,47.0,47.0,0.005129810086562643,0.005129810086562643,0.005129810086562643,0.005129810086562643,5.0489198440294115e-05,5.0489198440294115e-05,5.0489198440294115e-05,5.0489198440294115e-05,0.8750124170174204,0.8750124170174204,0.8750124170174204,0.8750124170174204,100.0,100.0,100.0,100.0,1,4
0,0.01904986133718228,0.01904986133718228,0.01904986133718228,0.01904986133718228,61.0,61.0,61.0,61.0,0.010248982478275553,0.010248982478275553,0.010248982478275553,0.010248982478275553,0.00036289712372242477,0.00036289712372242477,0.00036289712372242477,0.00036289712372242477,2.15051898282948,2.15051898282948,2.15051898282948,2.15051898282948,84.0,84.0,84.0,84.0,1,6
0,0.004867868101818012,0.004867868101818012,0.004867868101818012,0.004867868101818012,64.0,64.0,64.0,64.0,0.003616111261913447,0.003616111261913447,0.003616111261913447,0.003616111261913447,2.3686731158648623e-05,2.3686731158648623e-05,2.3686731158648623e-05,2.3686731158648623e-05,0.6312001752303211,0.6312001752303211,0.6312001752303211,0.6312001752303211,95.0,95.0,95.0,95.0,1,3
0,0.006164043129623243,0.006164043129623243,0.006164043129623243,0.006164043129623243,48.0,48.0,48.0,48.0,0.004986197619861746,0.004986197619861746,0.004986197619861746,0.004986197619861746,3.794147679981354e-05,3.794147679981354e-05,3.794147679981354e-05,3.794147679981354e-05,0.784130496619788,0.784130496619788,0.784130496619788,0.784130496619788,101.0,101.0,101.0,101.0,1,1
0,0.024444918193585425,0.024444918193585425,0.024444918193585425,0.024444918193585425,61.0,61.0,61.0,61.0,0.016164484611682364,0.016164484611682364,0.016164484611682364,0.016164484611682364,0.000597546122204924,0.000597546122204924,0.000597546122204924,0.000597546122204924,3.466264132088549,3.466264132088549,3.466264132088549,3.466264132088549,97.0,97.0,97.0,97.0,1,6
0,0.023008548292652857,0.023008548292652857,0.023008548292652857,0.023008548292652857,75.0,75.0,75.0,75.0,0.016689477064843077,0.016689477064843077,0.016689477064843077,0.016689477064843077,0.0005293903881087343,0.0005293903881087343,0.0005293903881087343,0.0005293903881087343,4.020857525171088,4.020857525171088,4.020857525171088,4.020857525171088,97.0,97.0,97.0,97.0,1,5
0,0.013797964531812324,0.013797964531812324,0.013797964531812324,0.013797964531812324,63.0,63.0,63.0,63.0,0.010090335579207054,0.010090335579207054,0.010090335579207054,0.010090335579207054,0.00019020228259711158,0.00019020228259711158,0.00019020228259711158,0.00019020228259711158,1.9169339132555754,1.9169339132555754,1.9169339132555754,1.9169339132555754,98.0,98.0,98.0,98.0,1,2
0,0.011595265990051071,0.011595265990051071,0.011595265990051071,0.011595265990051071,73.0,73.0,73.0,73.0,0.007959551281661918,0.007959551281661918,0.007959551281661918,0.007959551281661918,0.00013444913212671717,0.00013444913212671717,0.00013444913212671717,0.00013444913212671717,1.793485547347418,1.793485547347418,1.793485547347418,1.793485547347418,95.0,95.0,95.0,95.0,1,4
0,0.015223934345915336,0.015223934345915336,0.015223934345915336,0.015223934345915336,54.0,54.0,54.0,54.0,0.011597240124128732,0.011597240124128732,0.011597240124128732,0.011597240124128732,0.00023176605725175214,0.00023176605725175214,0.00023176605725175214,0.00023176605725175214,2.110902320816444,2.110902320816444,2.110902320816444,2.110902320816444,82.0,82.0,82.0,82.0,1,2
0,0.003475434241928427,0.003475434241928427,0.003475434241928427,0.003475434241928427,39.0,39.0,39.0,39.0,0.002784290519821225,0.002784290519821225,0.002784290519821225,0.002784290519821225,1.205433426048867e-05,1.205433426048867e-05,1.205433426048867e-05,1.205433426048867e-05,0.3713716598933925,0.3713716598933925,0.3713716598933925,0.3713716598933925,105.0,105.0,105.0,105.0,1,1
0,0.007691136439804501,0.007691136439804501,0.007691136439804501,0.007691136439804501,50.0,50.0,50.0,50.0,0.00508396157702441,0.00508396157702441,0.00508396157702441,0.00508396157702441,5.9142616906287126e-05,5.9142616906287126e-05,5.9142616906287126e-05,5.9142616906287126e-05,0.9682622956817616,0.9682622956817616,0.9682622956817616,0.9682622956817616,100.0,100.0,100.0,100.0,1,3
0,0.020603800333540583,0.020603800333540583,0.020603800333540583,0.020603800333540583,75.0,75.0,75.0,75.0,0.014625344355145042,0.014625344355145042,0.014625344355145042,0.014625344355145042,0.00042439571938988825,0.00042439571938988825,0.00042439571938988825,0.00042439571938988825,3.562130832586102,3.562130832586102,3.562130832586102,3.562130832586102,102.0,102.0,102.0,102.0,1,5
0,0.031274631622664445,0.031274631622664445,0.031274631622664445,0.031274631622664445,70.0,70.0,70.0,70.0,0.018784004821360244,0.018784004821360244,0.018784004821360244,0.018784004821360244,0.000978093005124696,0.000978093005124696,0.000978093005124696,0.000978093005124696,4.441724616071813,4.441724616071813,4.441724616071813,4.441724616071813,99.0,99.0,99.0,99.0,1,6
0,0.011872428969983029,0.011872428969983029,0.011872428969983029,0.011872428969983029,80.0,80.0,80.0,80.0,0.008562769424121191,0.008562769424121191,0.008562769424121191,0.008562769424121191,0.00014093991663881322,0.00014093991663881322,0.00014093991663881322,0.00014093991663881322,2.0114050108229984,2.0114050108229984,2.0114050108229984,2.0114050108229984,103.0,103.0,103.0,103.0,1,4
0,0.009862584297258874,0.009862584297258874,0.009862584297258874,0.009862584297258874,42.0,42.0,42.0,42.0,0.007848718086738878,0.007848718086738878,0.007848718086738878,0.007848718086738878,9.725538605070482e-05,9.725538605070482e-05,9.725538605070482e-05,9.725538605070482e-05,1.0699984864197059,1.0699984864197059,1.0699984864197059,1.0699984864197059,88.0,88.0,88.0,88.0,1,1
0,0.01039235498020147,0.01039235498020147,0.01039235498020147,0.01039235498020147,64.0,64.0,64.0,64.0,0.007751614652997349,0.007751614652997349,0.007751614652997349,0.007751614652997349,0.00010799861323535203,0.00010799861323535203,0.00010799861323535203,0.00010799861323535203,1.6708874732919021,1.6708874732919021,1.6708874732919021,1.6708874732919021,93.0,93.0,93.0,93.0,1,4
0,0.009517215473708759,0.009517215473708759,0.009517215473708759,0.009517215473708759,46.0,46.0,46.0,46.0,0.006940411551926769,0.006940411551926769,0.006940411551926769,0.006940411551926769,9.028927151950515e-05,9.028927151950515e-05,9.028927151950515e-05,9.028927151950515e-05,1.0945434230222308,1.0945434230222308,1.0945434230222308,1.0945434230222308,94.0,94.0,94.0,94.0,1,3
0,0.019192574224195406,0.019192574224195406,0.019192574224195406,0.019192574224195406,80.0,80.0,80.0,80.0,0.01380062777360592,0.01380062777360592,0.01380062777360592,0.01380062777360592,0.00036835430335576373,0.00036835430335576373,0.00036835430335576373,0.00036835430335576373,3.5283195606640954,3.5283195606640954,3.5283195606640954,3.5283195606640954,111.0,111.0,111.0,111.0,1,5
0,0.02260495711268112,0.02260495711268112,0.02260495711268112,0.02260495711268112,66.0,66.0,66.0,66.0,0.014823230329762143,0.014823230329762143,0.014823230329762143,0.014823230329762143,0.0005109840494778301,0.0005109840494778301,0.0005109840494778301,0.0005109840494778301,3.334061243993967,3.334061243993967,3.334061243993967,3.334061243993967,95.0,95.0,95.0,95.0,1,6
0,0.014480106488475057,0.014480106488475057,0.014480106488475057,0.014480106488475057,66.0,66.0,66.0,66.0,0.01036218385094927,0.01036218385094927,0.01036218385094927,0.01036218385094927,0.0002096732733834943,0.0002096732733834943,0.0002096732733834943,0.0002096732733834943,2.0622457611510665,2.0622457611510665,2.0622457611510665,2.0622457611510665,85.0,85.0,85.0,85.0,1,2
0,0.011197018591456413,0.011197018591456413,0.011197018591456413,0.011197018591456413,38.0,38.0,38.0,38.0,0.008724837728981659,0.008724837728981659,0.008724837728981659,0.008724837728981659,0.00012530426295058372,0.00012530426295058372,0.00012530426295058372,0.00012530426295058372,0.9843594210228571,0.9843594210228571,0.9843594210228571,0.9843594210228571,102.0,102.0,102.0,102.0,1,1
0,0.015161141453052036,0.015161141453052036,0.015161141453052036,0.015161141453052036,71.0,71.0,71.0,71.0,0.011700594408373446,0.011700594408373446,0.011700594408373446,0.011700594408373446,0.00022985436425794774,0.00022985436425794774,0.00022985436425794774,0.00022985436425794774,2.6179015667564975,2.6179015667564975,2.6179015667564975,2.6179015667564975,98.0,98.0,98.0,98.0,1,5
0,0.024753601770685585,0.024753601770685585,0.024753601770685585,0.024753601770685585,67.0,67.0,67.0,67.0,0.015483714860927507,0.015483714860927507,0.015483714860927507,0.015483714860927507,0.0006127359648595621,0.0006127359648595621,0.0006127359648595621,0.0006127359648595621,3.589615374771304,3.589615374771304,3.589615374771304,3.589615374771304,96.0,96.0,96.0,96.0,1,6
0,0.012852133257373145,0.012852133257373145,0.012852133257373145,0.012852133257373145,73.0,73.0,73.0,73.0,0.010185519147742158,0.010185519147742158,0.010185519147742158,0.010185519147742158,0.00016517555027552745,0.00016517555027552745,0.00016517555027552745,0.00016517555027552745,2.1193919582482104,2.1193919582482104,2.1193919582482104,2.1193919582482104,91.0,91.0,91.0,91.0,1,2
0,0.008575850416257285,0.008575850416257285,0.008575850416257285,0.008575850416257285,65.0,65.0,65.0,65.0,0.006257869898903951,0.006257869898903951,0.006257869898903951,0.006257869898903951,7.353833342133943e-05,7.353833342133943e-05,7.353833342133943e-05,7.353833342133943e-05,1.2228756460057808,1.2228756460057808,1.2228756460057808,1.2228756460057808,90.0,90.0,90.0,90.0,1,4
0,0.0027193498969873883,0.0027193498969873883,0.0027193498969873883,0.0027193498969873883,58.0,58.0,58.0,58.0,0.002100437213455674,0.002100437213455674,0.002100437213455674,0.002100437213455674,7.391718313586867e-06,7.391718313586867e-06,7.391718313586867e-06,7.391718313586867e-06,0.3391581621205047,0.3391581621205047,0.3391581621205047,0.3391581621205047,103.0,103.0,103.0,103.0,1,3
0,0.0029990943557306527,0.0029990943557306527,0.0029990943557306527,0.0029990943557306527,67.0,67.0,67.0,67.0,0.0023167245527379605,0.0023167245527379605,0.0023167245527379605,0.0023167245527379605,8.984857043489228e-06,8.984857043489228e-06,8.984857043489228e-06,8.984857043489228e-06,0.46632859567087015,0.46632859567087015,0.46632859567087015,0.46632859567087015,116.0,116.0,116.0,116.0,1,6
0,0.0033868572145564373,0.0033868572145564373,0.0033868572145564373,0.0033868572145564373,54.0,54.0,54.0,54.0,0.0025929524119875243,0.0025929524119875243,0.0025929524119875243,0.0025929524119875243,1.1469882641146418e-05,1.1469882641146418e-05,1.1469882641146418e-05,1.1469882641146418e-05,0.4431420511559996,0.4431420511559996,0.4431420511559996,0.4431420511559996,97.0,97.0,97.0,97.0,1,3
0,0.013057211547188145,0.013057211547188145,0.013057211547188145,0.013057211547188145,61.0,61.0,61.0,61.0,0.010058732811552158,0.010058732811552158,0.010058732811552158,0.010058732811552158,0.00017047808029975505,0.00017047808029975505,0.00017047808029975505,0.00017047808029975505,1.912999840713977,1.912999840713977,1.912999840713977,1.912999840713977,83.0,83.0,83.0,83.0,1,2
0,0.015992160227911126,0.015992160227911126,0.015992160227911126,0.015992160227911126,74.0,74.0,74.0,74.0,0.011855450830942815,0.011855450830942815,0.011855450830942815,0.011855450830942815,0.0002557353221325206,0.0002557353221325206,0.0002557353221325206,0.0002557353221325206,2.6065272028649105,2.6065272028649105,2.6065272028649105,2.6065272028649105,99.0,99.0,99.0,99.0,1,5
0,0.009122238468249413,0.009122238468249413,0.009122238468249413,0.009122238468249413,54.0,54.0,54.0,54.0,0.007170564158479562,0.007170564158479562,0.007170564158479562,0.007170564158479562,8.282034990998251e-05,8.282034990998251e-05,8.282034990998251e-05,8.282034990998251e-05,1.1984067610639686,1.1984067610639686,1.1984067610639686,1.1984067610639686,99.0,99.0,99.0,99.0,1,1
0,0.008346185941294755,0.008346185941294755,0.008346185941294755,0.008346185941294755,62.0,62.0,62.0,62.0,0.006396359093976242,0.006396359093976242,0.006396359093976242,0.006396359093976242,6.959286645435007e-05,6.959286645435007e-05,6.959286645435007e-05,6.959286645435007e-05,1.1623259916831872,1.1623259916831872,1.1623259916831872,1.1623259916831872,99.0,99.0,99.0,99.0,1,4
0,0.008708238706705571,0.008708238706705571,0.008708238706705571,0.008708238706705571,48.0,48.0,48.0,48.0,0.006818499888650376,0.006818499888650376,0.006818499888650376,0.006818499888650376,7.55925746355743e-05,7.55925746355743e-05,7.55925746355743e-05,7.55925746355743e-05,1.1630603669140296,1.1630603669140296,1.1630603669140296,1.1630603669140296,87.0,87.0,87.0,87.0,1,1
0,0.025792281014116288,0.025792281014116288,0.025792281014116288,0.025792281014116288,78.0,78.0,78.0,78.0,0.01926818718287064,0.01926818718287064,0.01926818718287064,0.01926818718287064,0.0006651221384401205,0.0006651221384401205,0.0006651221384401205,0.0006651221384401205,4.587002302419123,4.587002302419123,4.587002302419123,4.587002302419123,95.0,95.0,95.0,95.0,1,5
0,0.013826260313498292,0.013826260313498292,0.013826260313498292,0.013826260313498292,65.0,65.0,65.0,65.0,0.01079678861895025,0.01079678861895025,0.01079678861895025,0.01079678861895025,0.00019116118185040804,0.00019116118185040804,0.00019116118185040804,0.00019116118185040804,2.090428275598801,2.090428275598801,2.090428275598801,2.090428275598801,92.0,92.0,92.0,92.0,1,2
0,0.009035001227318956,0.009035001227318956,0.009035001227318956,0.009035001227318956,62.0,62.0,62.0,62.0,0.006607582187039832,0.006607582187039832,0.006607582187039832,0.006607582187039832,8.162894356045676e-05,8.162894356045676e-05,8.162894356045676e-05,8.162894356045676e-05,1.2975982418842191,1.2975982418842191,1.2975982418842191,1.2975982418842191,93.0,93.0,93.0,93.0,1,4
0,0.024281437718007587,0.024281437718007587,0.024281437718007587,0.024281437718007587,71.0,71.0,71.0,71.0,0.015116065652725446,0.015116065652725446,0.015116065652725446,0.015116065652725446,0.0005890108599958817,0.0005890108599958817,0.0005890108599958817,0.0005890108599958817,3.4956409451566604,3.4956409451566604,3.4956409451566604,3.4956409451566604,101.0,101.0,101.0,101.0,1,6
0,0.003807631347897174,0.003807631347897174,0.003807631347897174,0.003807631347897174,48.0,48.0,48.0,48.0,0.0027850621429169353,0.0027850621429169353,0.0027850621429169353,0.0027850621429169353,1.4497923900968199e-05,1.4497923900968199e-05,1.4497923900968199e-05,1.4497923900968199e-05,0.412881549820478,0.412881549820478,0.412881549820478,0.412881549820478,95.0,95.0,95.0,95.0,1,3
0,0.003964344479027291,0.003964344479027291,0.003964344479027291,0.003964344479027291,56.0,56.0,56.0,56.0,0.002894021903165363,0.002894021903165363,0.002894021903165363,0.002894021903165363,1.5669815549246156e-05,1.5669815549246156e-05,1.5669815549246156e-05,1.5669815549246156e-05,0.47296626710925654,0.47296626710925654,0.47296626710925654,0.47296626710925654,86.0,86.0,86.0,86.0,1,3
0,0.012129689775192323,0.012129689775192323,0.012129689775192323,0.012129689775192323,58.0,58.0,58.0,58.0,0.009035668171522298,0.009035668171522298,0.009035668171522298,0.009035668171522298,0.0001470973667821511,0.0001470973667821511,0.0001470973667821511,0.0001470973667821511,1.5988946083315414,1.5988946083315414,1.5988946083315414,1.5988946083315414,103.0,103.0,103.0,103.0,1,2
0,0.012089796945514616,0.012089796945514616,0.012089796945514616,0.012089796945514616,37.0,37.0,37.0,37.0,0.008767437450337305,0.008767437450337305,0.008767437450337305,0.008767437450337305,0.00014595654642036456,0.00014595654642036456,0.00014595654642036456,0.00014595654642036456,0.8837364364159235,0.8837364364159235,0.8837364364159235,0.8837364364159235,97.0,97.0,97.0,97.0,1,1
0,0.006892315524707702,0.006892315524707702,0.006892315524707702,0.006892315524707702,57.0,57.0,57.0,57.0,0.005241696400432484,0.005241696400432484,0.005241696400432484,0.005241696400432484,4.7499724309476024e-05,4.7499724309476024e-05,4.7499724309476024e-05,4.7499724309476024e-05,1.0001230357707702,1.0001230357707702,1.0001230357707702,1.0001230357707702,105.0,105.0,105.0,105.0,1,4
0,0.009971635918973428,0.009971635918973428,0.009971635918973428,0.009971635918973428,70.0,70.0,70.0,70.0,0.007713369441543345,0.007713369441543345,0.007713369441543345,0.007713369441543345,9.937749831823645e-05,9.937749831823645e-05,9.937749831823645e-05,9.937749831823645e-05,1.6046978907507023,1.6046978907507023,1.6046978907507023,1.6046978907507023,84.0,84.0,84.0,84.0,1,5
0,0.021699418627406705,0.021699418627406705,0.021699418627406705,0.021699418627406705,60.0,60.0,60.0,60.0,0.011063385730081613,0.011063385730081613,0.011063385730081613,0.011063385730081613,0.00047086035376124667,0.00047086035376124667,0.00047086035376124667,0.00047086035376124667,2.2699915734413003,2.2699915734413003,2.2699915734413003,2.2699915734413003,91.0,91.0,91.0,91.0,1,6
0,0.006683406972522279,0.006683406972522279,0.006683406972522279,0.006683406972522279,61.0,61.0,61.0,61.0,0.005318348917501388,0.005318348917501388,0.005318348917501388,0.005318348917501388,4.465874336256123e-05,4.465874336256123e-05,4.465874336256123e-05,4.465874336256123e-05,1.0805356262020727,1.0805356262020727,1.0805356262020727,1.0805356262020727,92.0,92.0,92.0,92.0,1,4
0,0.008222038656815414,0.008222038656815414,0.008222038656815414,0.008222038656815414,52.0,52.0,52.0,52.0,0.006302404697589435,0.006302404697589435,0.006302404697589435,0.006302404697589435,6.743245071435143e-05,6.743245071435143e-05,6.743245071435143e-05,6.743245071435143e-05,0.9114670551849332,0.9114670551849332,0.9114670551849332,0.9114670551849332,80.0,80.0,80.0,80.0,1,1
0,0.012429451542430758,0.012429451542430758,0.012429451542430758,0.012429451542430758,74.0,74.0,74.0,74.0,0.009239121839412662,0.009239121839412662,0.009239121839412662,0.009239121839412662,0.00015442416252628614,0.00015442416252628614,0.00015442416252628614,0.00015442416252628614,2.0097250484000284,2.0097250484000284,2.0097250484000284,2.0097250484000284,101.0,101.0,101.0,101.0,1,5
0,0.011379882217335898,0.011379882217335898,0.011379882217335898,0.011379882217335898,73.0,73.0,73.0,73.0,0.00855218727565633,0.00855218727565633,0.00855218727565633,0.00855218727565633,0.00012946013914169556,0.00012946013914169556,0.00012946013914169556,0.00012946013914169556,1.7766867549152123,1.7766867549152123,1.7766867549152123,1.7766867549152123,90.0,90.0,90.0,90.0,1,2
0,0.008258452623187867,0.008258452623187867,0.008258452623187867,0.008258452623187867,49.0,49.0,49.0,49.0,0.005472726552596907,0.005472726552596907,0.005472726552596907,0.005472726552596907,6.816129208011743e-05,6.816129208011743e-05,6.816129208011743e-05,6.816129208011743e-05,1.0413873732627996,1.0413873732627996,1.0413873732627996,1.0413873732627996,87.0,87.0,87.0,87.0,1,3
0,0.024306481138788964,0.024306481138788964,0.024306481138788964,0.024306481138788964,75.0,75.0,75.0,75.0,0.015013307037861674,0.015013307037861674,0.015013307037861674,0.015013307037861674,0.0005907286954516693,0.0005907286954516693,0.0005907286954516693,0.0005907286954516693,3.5328365555566963,3.5328365555566963,3.5328365555566963,3.5328365555566963,98.0,98.0,98.0,98.0,1,6
0,0.007709165468286333,0.007709165468286333,0.007709165468286333,0.007709165468286333,49.0,49.0,49.0,49.0,0.006275000592889197,0.006275000592889197,0.006275000592889197,0.006275000592889197,5.8644216475903687e-05,5.8644216475903687e-05,5.8644216475903687e-05,5.8644216475903687e-05,0.9289501495162954,0.9289501495162954,0.9289501495162954,0.9289501495162954,92.0,92.0,92.0,92.0,1,1
0,0.01521851254529013,0.01521851254529013,0.01521851254529013,0.01521851254529013,78.0,78.0,78.0,78.0,0.010129386289709648,0.010129386289709648,0.010129386289709648,0.010129386289709648,0.00023160310040259654,0.00023160310040259654,0.00023160310040259654,0.00023160310040259654,2.285682554776219,2.285682554776219,2.285682554776219,2.285682554776219,98.0,98.0,98.0,98.0,1,5
0,0.008510756194461962,0.008510756194461962,0.008510756194461962,0.008510756194461962,68.0,68.0,68.0,68.0,0.006390310848245161,0.006390310848245161,0.006390310848245161,0.006390310848245161,7.242811169213562e-05,7.242811169213562e-05,7.242811169213562e-05,7.242811169213562e-05,1.2519947061428758,1.2519947061428758,1.2519947061428758,1.2519947061428758,104.0,104.0,104.0,104.0,1,4
0,0.009402633409981178,0.009402633409981178,0.009402633409981178,0.009402633409981178,64.0,64.0,64.0,64.0,0.007270048182324649,0.007270048182324649,0.007270048182324649,0.007270048182324649,8.837147449760708e-05,8.837147449760708e-05,8.837147449760708e-05,8.837147449760708e-05,1.5101361759584844,1.5101361759584844,1.5101361759584844,1.5101361759584844,90.0,90.0,90.0,90.0,1,2
0,0.009786823212842018,0.009786823212842018,0.009786823212842018,0.009786823212842018,56.0,56.0,56.0,56.0,0.006401645287874049,0.006401645287874049,0.006401645287874049,0.006401645287874049,9.577698803219019e-05,9.577698803219019e-05,9.577698803219019e-05,9.577698803219019e-05,1.128395683019341,1.128395683019341,1.128395683019341,1.128395683019341,82.0,82.0,82.0,82.0,1,3
0,0.01734282686704398,0.01734282686704398,0.01734282686704398,0.01734282686704398,69.0,69.0,69.0,69.0,0.0105058475120145,0.0105058475120145,0.0105058475120145,0.0105058475120145,0.0003007510180304982,0.0003007510180304982,0.0003007510180304982,0.0003007510180304982,2.3524788906869514,2.3524788906869514,2.3524788906869514,2.3524788906869514,91.0,91.0,91.0,91.0,1,6
0,0.002560750031028554,0.002560750031028554,0.002560750031028554,0.002560750031028554,49.0,49.0,49.0,49.0,0.002051051552784343,0.002051051552784343,0.002051051552784343,0.002051051552784343,6.547707802891818e-06,6.547707802891818e-06,6.547707802891818e-06,6.547707802891818e-06,0.3043867582971031,0.3043867582971031,0.3043867582971031,0.3043867582971031,101.0,101.0,101.0,101.0,1,4
0,0.01201830657368976,0.01201830657368976,0.01201830657368976,0.01201830657368976,65.0,65.0,65.0,65.0,0.0092610551458977,0.0092610551458977,0.0092610551458977,0.0092610551458977,0.00014443911653873423,0.00014443911653873423,0.00014443911653873423,0.00014443911653873423,1.7666775481139942,1.7666775481139942,1.7666775481139942,1.7666775481139942,93.0,93.0,93.0,93.0,1,2
0,0.010671769728896247,0.010671769728896247,0.010671769728896247,0.010671769728896247,57.0,57.0,57.0,57.0,0.007246331465299844,0.007246331465299844,0.007246331465299844,0.007246331465299844,0.00011388651078309755,0.00011388651078309755,0.00011388651078309755,0.00011388651078309755,1.3841345779639205,1.3841345779639205,1.3841345779639205,1.3841345779639205,83.0,83.0,83.0,83.0,1,3
0,0.01568963773769848,0.01568963773769848,0.01568963773769848,0.01568963773769848,79.0,79.0,79.0,79.0,0.011914331066599435,0.011914331066599435,0.011914331066599435,0.011914331066599435,0.0002461594327342293,0.0002461594327342293,0.0002461594327342293,0.0002461594327342293,2.8788752771050916,2.8788752771050916,2.8788752771050916,2.8788752771050916,109.0,109.0,109.0,109.0,1,5
0,0.009835903125963634,0.009835903125963634,0.009835903125963634,0.009835903125963634,52.0,52.0,52.0,52.0,0.007349054864360382,0.007349054864360382,0.007349054864360382,0.007349054864360382,9.612813873988465e-05,9.612813873988465e-05,9.612813873988465e-05,9.612813873988465e-05,0.9190765434054862,0.9190765434054862,0.9190765434054862,0.9190765434054862,107.0,107.0,107.0,107.0,1,1
