,rms0,rms1,rms2,rms3,zc0,zc1,zc2,zc3,mav0,mav1,mav2,mav3,var0,var1,var2,var3,wl0,wl1,wl2,wl3,ssc0,ssc1,ssc2,ssc3,contraction,output
0,0.01862633472017454,0.01862633472017454,0.01862633472017454,0.01862633472017454,60.0,60.0,60.0,60.0,0.013975117353465589,0.013975117353465589,0.013975117353465589,0.013975117353465589,0.0003469200714254841,0.0003469200714254841,0.0003469200714254841,0.0003469200714254841,2.463520497595578,2.463520497595578,2.463520497595578,2.463520497595578,92.0,92.0,92.0,92.0,1,4
0,0.011299508007787564,0.011299508007787564,0.011299508007787564,0.011299508007787564,52.0,52.0,52.0,52.0,0.009107065220169687,0.009107065220169687,0.009107065220169687,0.009107065220169687,0.00012764685866146325,0.00012764685866146325,0.00012764685866146325,0.00012764685866146325,1.5944663607084233,1.5944663607084233,1.5944663607084233,1.5944663607084233,90.0,90.0,90.0,90.0,1,6
0,0.03907807779345751,0.03907807779345751,0.03907807779345751,0.03907807779345751,95.0,95.0,95.0,95.0,0.031137264896658242,0.031137264896658242,0.031137264896658242,0.031137264896658242,0.001527069481867788,0.001527069481867788,0.001527069481867788,0.001527069481867788,7.862632391547356,7.862632391547356,7.862632391547356,7.862632391547356,114.0,114.0,114.0,114.0,1,5
0,0.02496892724086027,0.02496892724086027,0.02496892724086027,0.02496892724086027,82.0,82.0,82.0,82.0,0.019204422032914937,0.019204422032914937,0.019204422032914937,0.019204422032914937,0.0006234353691971996,0.0006234353691971996,0.0006234353691971996,0.0006234353691971996,4.416694205446586,4.416694205446586,4.416694205446586,4.416694205446586,105.0,105.0,105.0,105.0,1,1
0,0.007446990883457352,0.007446990883457352,0.007446990883457352,0.007446990883457352,43.0,43.0,43.0,43.0,0.006010442004377952,0.006010442004377952,0.006010442004377952,0.006010442004377952,5.5446934769379907e-05,5.5446934769379907e-05,5.5446934769379907e-05,5.5446934769379907e-05,0.9146133965727955,0.9146133965727955,0.9146133965727955,0.9146133965727955,102.0,102.0,102.0,102.0,1,3
0,0.017512158007285956,0.017512158007285956,0.017512158007285956,0.017512158007285956,78.0,78.0,78.0,78.0,0.013230229170447338,0.013230229170447338,0.013230229170447338,0.013230229170447338,0.00030663220007500885,0.00030663220007500885,0.00030663220007500885,0.00030663220007500885,3.013069289958408,3.013069289958408,3.013069289958408,3.013069289958408,106.0,106.0,106.0,106.0,1,2
0,0.035740807225061205,0.035740807225061205,0.035740807225061205,0.035740807225061205,88.0,88.0,88.0,88.0,0.028596288595733124,0.028596288595733124,0.028596288595733124,0.028596288595733124,0.0012769821800466573,0.0012769821800466573,0.0012769821800466573,0.0012769821800466573,6.997976332969172,6.997976332969172,6.997976332969172,6.997976332969172,105.0,105.0,105.0,105.0,1,5
0,0.008169250542899525,0.008169250542899525,0.008169250542899525,0.008169250542899525,40.0,40.0,40.0,40.0,0.006531876304088242,0.006531876304088242,0.006531876304088242,0.006531876304088242,6.672449363908156e-05,6.672449363908156e-05,6.672449363908156e-05,6.672449363908156e-05,0.9763896610000391,0.9763896610000391,0.9763896610000391,0.9763896610000391,86.0,86.0,86.0,86.0,1,3
0,0.015171213662964748,0.015171213662964748,0.015171213662964748,0.015171213662964748,66.0,66.0,66.0,66.0,0.011790350520056354,0.011790350520056354,0.011790350520056354,0.011790350520056354,0.0002301569597669313,0.0002301569597669313,0.0002301569597669313,0.0002301569597669313,2.5144865888751182,2.5144865888751182,2.5144865888751182,2.5144865888751182,97.0,97.0,97.0,97.0,1,2
0,0.018477765314006116,0.018477765314006116,0.018477765314006116,0.018477765314006116,73.0,73.0,73.0,73.0,0.014731516951632636,0.014731516951632636,0.014731516951632636,0.014731516951632636,0.0003413765052088909,0.0003413765052088909,0.0003413765052088909,0.0003413765052088909,3.4263196504154685,3.4263196504154685,3.4263196504154685,3.4263196504154685,119.0,119.0,119.0,119.0,1,1
0,0.011198562328617646,0.011198562328617646,0.011198562328617646,0.011198562328617646,55.0,55.0,55.0,55.0,0.009057405838412823,0.009057405838412823,0.009057405838412823,0.009057405838412823,0.0001254005765860159,0.0001254005765860159,0.0001254005765860159,0.0001254005765860159,1.7293484350394948,1.7293484350394948,1.7293484350394948,1.7293484350394948,105.0,105.0,105.0,105.0,1,6
0,0.02207930075270488,0.02207930075270488,0.02207930075270488,0.02207930075270488,60.0,60.0,60.0,60.0,0.01690768671030162,0.01690768671030162,0.01690768671030162,0.01690768671030162,0.0004874954308634396,0.0004874954308634396,0.0004874954308634396,0.0004874954308634396,3.2561967663493094,3.2561967663493094,3.2561967663493094,3.2561967663493094,92.0,92.0,92.0,92.0,1,4
0,0.031423779857810995,0.031423779857810995,0.031423779857810995,0.031423779857810995,84.0,84.0,84.0,84.0,0.02478468087759004,0.02478468087759004,0.02478468087759004,0.02478468087759004,0.0009874517231593832,0.0009874517231593832,0.0009874517231593832,0.0009874517231593832,5.835376235763555,5.835376235763555,5.835376235763555,5.835376235763555,118.0,118.0,118.0,118.0,1,5
0,0.022678428988345947,0.022678428988345947,0.022678428988345947,0.022678428988345947,69.0,69.0,69.0,69.0,0.015075767170817529,0.015075767170817529,0.015075767170817529,0.015075767170817529,0.0005142749519269026,0.0005142749519269026,0.0005142749519269026,0.0005142749519269026,3.0488492610419025,3.0488492610419025,3.0488492610419025,3.0488492610419025,91.0,91.0,91.0,91.0,1,2
0,0.021748728136943726,0.021748728136943726,0.021748728136943726,0.021748728136943726,84.0,84.0,84.0,84.0,0.01607636372662949,0.01607636372662949,0.01607636372662949,0.01607636372662949,0.0004730067262023927,0.0004730067262023927,0.0004730067262023927,0.0004730067262023927,3.9514781283282936,3.9514781283282936,3.9514781283282936,3.9514781283282936,108.0,108.0,108.0,108.0,1,1
0,0.012299178698414728,0.012299178698414728,0.012299178698414728,0.012299178698414728,54.0,54.0,54.0,54.0,0.00963257946933555,0.00963257946933555,0.00963257946933555,0.00963257946933555,0.00015126754372309589,0.00015126754372309589,0.00015126754372309589,0.00015126754372309589,1.6106920972447072,1.6106920972447072,1.6106920972447072,1.6106920972447072,81.0,81.0,81.0,81.0,1,4
0,0.008979458584022555,0.008979458584022555,0.008979458584022555,0.008979458584022555,58.0,58.0,58.0,58.0,0.007541267393381642,0.007541267393381642,0.007541267393381642,0.007541267393381642,8.06266248162372e-05,8.06266248162372e-05,8.06266248162372e-05,8.06266248162372e-05,1.3238434415748166,1.3238434415748166,1.3238434415748166,1.3238434415748166,100.0,100.0,100.0,100.0,1,6
0,0.0072663714357816414,0.0072663714357816414,0.0072663714357816414,0.0072663714357816414,50.0,50.0,50.0,50.0,0.006000916891699536,0.006000916891699536,0.006000916891699536,0.006000916891699536,5.275295040722057e-05,5.275295040722057e-05,5.275295040722057e-05,5.275295040722057e-05,0.9019259027541824,0.9019259027541824,0.9019259027541824,0.9019259027541824,73.0,73.0,73.0,73.0,1,3
0,0.00880494423902444,0.00880494423902444,0.00880494423902444,0.00880494423902444,45.0,45.0,45.0,45.0,0.007126410123398087,0.007126410123398087,0.007126410123398087,0.007126410123398087,7.751581846310583e-05,7.751581846310583e-05,7.751581846310583e-05,7.751581846310583e-05,1.1272911142839703,1.1272911142839703,1.1272911142839703,1.1272911142839703,98.0,98.0,98.0,98.0,1,6
0,0.018777241019888053,0.018777241019888053,0.018777241019888053,0.018777241019888053,78.0,78.0,78.0,78.0,0.014407715149248998,0.014407715149248998,0.014407715149248998,0.014407715149248998,0.0003525590998090918,0.0003525590998090918,0.0003525590998090918,0.0003525590998090918,3.1180387331514003,3.1180387331514003,3.1180387331514003,3.1180387331514003,107.0,107.0,107.0,107.0,1,1
0,0.013638103877270533,0.013638103877270533,0.013638103877270533,0.013638103877270533,61.0,61.0,61.0,61.0,0.01004853361869646,0.01004853361869646,0.01004853361869646,0.01004853361869646,0.00018599728308927351,0.00018599728308927351,0.00018599728308927351,0.00018599728308927351,2.102776884132621,2.102776884132621,2.102776884132621,2.102776884132621,108.0,108.0,108.0,108.0,1,2
0,0.006917452549318252,0.006917452549318252,0.006917452549318252,0.006917452549318252,36.0,36.0,36.0,36.0,0.005763915363050698,0.005763915363050698,0.005763915363050698,0.005763915363050698,4.781976633738368e-05,4.781976633738368e-05,4.781976633738368e-05,4.781976633738368e-05,0.6921773308201882,0.6921773308201882,0.6921773308201882,0.6921773308201882,84.0,84.0,84.0,84.0,1,3
0,0.010838437719579397,0.010838437719579397,0.010838437719579397,0.010838437719579397,47.0,47.0,47.0,47.0,0.008819744493852932,0.008819744493852932,0.008819744493852932,0.008819744493852932,0.00011747152580552572,0.00011747152580552572,0.00011747152580552572,0.00011747152580552572,1.384846677433323,1.384846677433323,1.384846677433323,1.384846677433323,86.0,86.0,86.0,86.0,1,4
0,0.03891832222152484,0.03891832222152484,0.03891832222152484,0.03891832222152484,76.0,76.0,76.0,76.0,0.029705794426573142,0.029705794426573142,0.029705794426573142,0.029705794426573142,0.0015145377046120257,0.0015145377046120257,0.0015145377046120257,0.0015145377046120257,6.986861389604973,6.986861389604973,6.986861389604973,6.986861389604973,111.0,111.0,111.0,111.0,1,5
0,0.011277410860282324,0.011277410860282324,0.011277410860282324,0.011277410860282324,65.0,65.0,65.0,65.0,0.008709790504053098,0.008709790504053098,0.008709790504053098,0.008709790504053098,0.00012713570475644586,0.00012713570475644586,0.00012713570475644586,0.00012713570475644586,1.7664872168594603,1.7664872168594603,1.7664872168594603,1.7664872168594603,99.0,99.0,99.0,99.0,1,2
0,0.00858564975708027,0.00858564975708027,0.00858564975708027,0.00858564975708027,52.0,52.0,52.0,52.0,0.006855276835049405,0.006855276835049405,0.006855276835049405,0.006855276835049405,7.363368356066173e-05,7.363368356066173e-05,7.363368356066173e-05,7.363368356066173e-05,1.0828626807316306,1.0828626807316306,1.0828626807316306,1.0828626807316306,84.0,84.0,84.0,84.0,1,4
0,0.019928958210700475,0.019928958210700475,0.019928958210700475,0.019928958210700475,76.0,76.0,76.0,76.0,0.015703520633577696,0.015703520633577696,0.015703520633577696,0.015703520633577696,0.0003971432763006293,0.0003971432763006293,0.0003971432763006293,0.0003971432763006293,3.589504566759593,3.589504566759593,3.589504566759593,3.589504566759593,113.0,113.0,113.0,113.0,1,1
0,0.011287555843352849,0.011287555843352849,0.011287555843352849,0.011287555843352849,50.0,50.0,50.0,50.0,0.008863500698274343,0.008863500698274343,0.008863500698274343,0.008863500698274343,0.00012740326499725125,0.00012740326499725125,0.00012740326499725125,0.00012740326499725125,1.526166405909303,1.526166405909303,1.526166405909303,1.526166405909303,89.0,89.0,89.0,89.0,1,6
0,0.006012232804591595,0.006012232804591595,0.006012232804591595,0.006012232804591595,31.0,31.0,31.0,31.0,0.005082105923289071,0.005082105923289071,0.005082105923289071,0.005082105923289071,3.6115560677184194e-05,3.6115560677184194e-05,3.6115560677184194e-05,3.6115560677184194e-05,0.6946746895922608,0.6946746895922608,0.6946746895922608,0.6946746895922608,104.0,104.0,104.0,104.0,1,3
0,0.03301754275445587,0.03301754275445587,0.03301754275445587,0.03301754275445587,84.0,84.0,84.0,84.0,0.026019116558489746,0.026019116558489746,0.026019116558489746,0.026019116558489746,0.0010897579133917973,0.0010897579133917973,0.0010897579133917973,0.0010897579133917973,6.315468814549124,6.315468814549124,6.315468814549124,6.315468814549124,108.0,108.0,108.0,108.0,1,5
0,0.03587749954164011,0.03587749954164011,0.03587749954164011,0.03587749954164011,78.0,78.0,78.0,78.0,0.02786988887458789,0.02786988887458789,0.02786988887458789,0.02786988887458789,0.0012871791472394373,0.0012871791472394373,0.0012871791472394373,0.0012871791472394373,6.5563007314057895,6.5563007314057895,6.5563007314057895,6.5563007314057895,99.0,99.0,99.0,99.0,1,5
0,0.016380612001340833,0.016380612001340833,0.016380612001340833,0.016380612001340833,60.0,60.0,60.0,60.0,0.011764875747871061,0.011764875747871061,0.011764875747871061,0.011764875747871061,0.0002682811359832329,0.0002682811359832329,0.0002682811359832329,0.0002682811359832329,2.213128541581776,2.213128541581776,2.213128541581776,2.213128541581776,87.0,87.0,87.0,87.0,1,4
0,0.006717661610389458,0.006717661610389458,0.006717661610389458,0.006717661610389458,40.0,40.0,40.0,40.0,0.005521712379578357,0.005521712379578357,0.005521712379578357,0.005521712379578357,4.512562539181002e-05,4.512562539181002e-05,4.512562539181002e-05,4.512562539181002e-05,0.7447850014985962,0.7447850014985962,0.7447850014985962,0.7447850014985962,95.0,95.0,95.0,95.0,1,3
0,0.021059876926454585,0.021059876926454585,0.021059876926454585,0.021059876926454585,69.0,69.0,69.0,69.0,0.016166845914847038,0.016166845914847038,0.016166845914847038,0.016166845914847038,0.00044346995021469213,0.00044346995021469213,0.00044346995021469213,0.00044346995021469213,3.679036811453499,3.679036811453499,3.679036811453499,3.679036811453499,112.0,112.0,112.0,112.0,1,1
0,0.009651829208847749,0.009651829208847749,0.009651829208847749,0.009651829208847749,61.0,61.0,61.0,61.0,0.0074184227732572335,0.0074184227732572335,0.0074184227732572335,0.0074184227732572335,9.313177614698409e-05,9.313177614698409e-05,9.313177614698409e-05,9.313177614698409e-05,1.293711785114188,1.293711785114188,1.293711785114188,1.293711785114188,88.0,88.0,88.0,88.0,1,6
0,0.013382877967108867,0.013382877967108867,0.013382877967108867,0.013382877967108867,69.0,69.0,69.0,69.0,0.01066266310023869,0.01066266310023869,0.01066266310023869,0.01066266310023869,0.00017908495379581163,0.00017908495379581163,0.00017908495379581163,0.00017908495379581163,2.2782631214434446,2.2782631214434446,2.2782631214434446,2.2782631214434446,101.0,101.0,101.0,101.0,1,2
0,0.008907174436805016,0.008907174436805016,0.008907174436805016,0.008907174436805016,50.0,50.0,50.0,50.0,0.00719372292849399,0.00719372292849399,0.00719372292849399,0.00719372292849399,7.932925857984902e-05,7.932925857984902e-05,7.932925857984902e-05,7.932925857984902e-05,1.1853061375038516,1.1853061375038516,1.1853061375038516,1.1853061375038516,98.0,98.0,98.0,98.0,1,6
0,0.012475448337312246,0.012475448337312246,0.012475448337312246,0.012475448337312246,68.0,68.0,68.0,68.0,0.009983970812102927,0.009983970812102927,0.009983970812102927,0.009983970812102927,0.0001555482496440905,0.0001555482496440905,0.0001555482496440905,0.0001555482496440905,1.975570284251766,1.975570284251766,1.975570284251766,1.975570284251766,108.0,108.0,108.0,108.0,1,2
0,0.006619467142450331,0.006619467142450331,0.006619467142450331,0.006619467142450331,38.0,38.0,38.0,38.0,0.005585070124735549,0.005585070124735549,0.005585070124735549,0.005585070124735549,4.3810586609018314e-05,4.3810586609018314e-05,4.3810586609018314e-05,4.3810586609018314e-05,0.7571229489661288,0.7571229489661288,0.7571229489661288,0.7571229489661288,100.0,100.0,100.0,100.0,1,3
0,0.01804622846124729,0.01804622846124729,0.01804622846124729,0.01804622846124729,72.0,72.0,72.0,72.0,0.013977951689665544,0.013977951689665544,0.013977951689665544,0.013977951689665544,0.0003256019756232352,0.0003256019756232352,0.0003256019756232352,0.0003256019756232352,3.044680727800423,3.044680727800423,3.044680727800423,3.044680727800423,109.0,109.0,109.0,109.0,1,1
0,0.05250007485096597,0.05250007485096597,0.05250007485096597,0.05250007485096597,80.0,80.0,80.0,80.0,0.038899588593951186,0.038899588593951186,0.038899588593951186,0.038899588593951186,0.0027562108083126757,0.0027562108083126757,0.0027562108083126757,0.0027562108083126757,9.582911324313566,9.582911324313566,9.582911324313566,9.582911324313566,97.0,97.0,97.0,97.0,1,5
0,0.016108380445573573,0.016108380445573573,0.016108380445573573,0.016108380445573573,61.0,61.0,61.0,61.0,0.012511818473071337,0.012511818473071337,0.012511818473071337,0.012511818473071337,0.000259368966927649,0.000259368966927649,0.000259368966927649,0.000259368966927649,2.3278106266863627,2.3278106266863627,2.3278106266863627,2.3278106266863627,82.0,82.0,82.0,82.0,1,4
0,0.01852866139402054,0.01852866139402054,0.01852866139402054,0.01852866139402054,70.0,70.0,70.0,70.0,0.013704397692563017,0.013704397692563017,0.013704397692563017,0.013704397692563017,0.0003433110940184995,0.0003433110940184995,0.0003433110940184995,0.0003433110940184995,2.8614265577816385,2.8614265577816385,2.8614265577816385,2.8614265577816385,88.0,88.0,88.0,88.0,1,2
0,0.008891378114087802,0.008891378114087802,0.008891378114087802,0.008891378114087802,65.0,65.0,65.0,65.0,0.00701694267091477,0.00701694267091477,0.00701694267091477,0.00701694267091477,7.901904384053215e-05,7.901904384053215e-05,7.901904384053215e-05,7.901904384053215e-05,1.4255788704328696,1.4255788704328696,1.4255788704328696,1.4255788704328696,100.0,100.0,100.0,100.0,1,6
0,0.016362898858353698,0.016362898858353698,0.016362898858353698,0.016362898858353698,57.0,57.0,57.0,57.0,0.0129344222115302,0.0129344222115302,0.0129344222115302,0.0129344222115302,0.00026773550674168546,0.00026773550674168546,0.00026773550674168546,0.00026773550674168546,2.2600333916846065,2.2600333916846065,2.2600333916846065,2.2600333916846065,90.0,90.0,90.0,90.0,1,4
0,0.04282948244847843,0.04282948244847843,0.04282948244847843,0.04282948244847843,87.0,87.0,87.0,87.0,0.03060353151925098,0.03060353151925098,0.03060353151925098,0.03060353151925098,0.0018329343551928045,0.0018329343551928045,0.0018329343551928045,0.0018329343551928045,8.200540108231404,8.200540108231404,8.200540108231404,8.200540108231404,104.0,104.0,104.0,104.0,1,5
0,0.02193144354173528,0.02193144354173528,0.02193144354173528,0.02193144354173528,73.0,73.0,73.0,73.0,0.017469786977729024,0.017469786977729024,0.017469786977729024,0.017469786977729024,0.00048092890834512615,0.00048092890834512615,0.00048092890834512615,0.00048092890834512615,3.9652050670232275,3.9652050670232275,3.9652050670232275,3.9652050670232275,101.0,101.0,101.0,101.0,1,1
0,0.007580266360336374,0.007580266360336374,0.007580266360336374,0.007580266360336374,42.0,42.0,42.0,42.0,0.005943725164909669,0.005943725164909669,0.005943725164909669,0.005943725164909669,5.744561197224801e-05,5.744561197224801e-05,5.744561197224801e-05,5.744561197224801e-05,1.0549706744283438,1.0549706744283438,1.0549706744283438,1.0549706744283438,95.0,95.0,95.0,95.0,1,3
0,0.015905539006638995,0.015905539006638995,0.015905539006638995,0.015905539006638995,60.0,60.0,60.0,60.0,0.012696828644078294,0.012696828644078294,0.012696828644078294,0.012696828644078294,0.0002527447388937811,0.0002527447388937811,0.0002527447388937811,0.0002527447388937811,2.5621964494422604,2.5621964494422604,2.5621964494422604,2.5621964494422604,103.0,103.0,103.0,103.0,1,1
0,0.014015984350221639,0.014015984350221639,0.014015984350221639,0.014015984350221639,68.0,68.0,68.0,68.0,0.010839038218485414,0.010839038218485414,0.010839038218485414,0.010839038218485414,0.0001964459509704948,0.0001964459509704948,0.0001964459509704948,0.0001964459509704948,2.1227350702245213,2.1227350702245213,2.1227350702245213,2.1227350702245213,87.0,87.0,87.0,87.0,1,4
0,0.007610738250906037,0.007610738250906037,0.007610738250906037,0.007610738250906037,55.0,55.0,55.0,55.0,0.0057995535896474435,0.0057995535896474435,0.0057995535896474435,0.0057995535896474435,5.7921888399765486e-05,5.7921888399765486e-05,5.7921888399765486e-05,5.7921888399765486e-05,1.0689372603479819,1.0689372603479819,1.0689372603479819,1.0689372603479819,100.0,100.0,100.0,100.0,1,3
0,0.019375691939996435,0.019375691939996435,0.019375691939996435,0.019375691939996435,70.0,70.0,70.0,70.0,0.01457218807414673,0.01457218807414673,0.01457218807414673,0.01457218807414673,0.00037539026215254264,0.00037539026215254264,0.00037539026215254264,0.00037539026215254264,3.0718163973844845,3.0718163973844845,3.0718163973844845,3.0718163973844845,89.0,89.0,89.0,89.0,1,2
0,0.012502813560623218,0.012502813560623218,0.012502813560623218,0.012502813560623218,66.0,66.0,66.0,66.0,0.009711456665426225,0.009711456665426225,0.009711456665426225,0.009711456665426225,0.00015626643937746286,0.00015626643937746286,0.00015626643937746286,0.00015626643937746286,1.9690065865214068,1.9690065865214068,1.9690065865214068,1.9690065865214068,109.0,109.0,109.0,109.0,1,6
0,0.03803680221263904,0.03803680221263904,0.03803680221263904,0.03803680221263904,86.0,86.0,86.0,86.0,0.030054063270509898,0.030054063270509898,0.030054063270509898,0.030054063270509898,0.0014467929925384806,0.0014467929925384806,0.0014467929925384806,0.0014467929925384806,7.716216398172319,7.716216398172319,7.716216398172319,7.716216398172319,117.0,117.0,117.0,117.0,1,5
0,0.0070451679207975655,0.0070451679207975655,0.0070451679207975655,0.0070451679207975655,46.0,46.0,46.0,46.0,0.005706187294102776,0.005706187294102776,0.005706187294102776,0.005706187294102776,4.962796588982838e-05,4.962796588982838e-05,4.962796588982838e-05,4.962796588982838e-05,0.8691518152145755,0.8691518152145755,0.8691518152145755,0.8691518152145755,101.0,101.0,101.0,101.0,1,3
0,0.01363203158466196,0.01363203158466196,0.01363203158466196,0.01363203158466196,61.0,61.0,61.0,61.0,0.01055522949459891,0.01055522949459891,0.01055522949459891,0.01055522949459891,0.00018582601379119875,0.00018582601379119875,0.00018582601379119875,0.00018582601379119875,2.0024786599535274,2.0024786599535274,2.0024786599535274,2.0024786599535274,90.0,90.0,90.0,90.0,1,4
0,0.018585522509572225,0.018585522509572225,0.018585522509572225,0.018585522509572225,76.0,76.0,76.0,76.0,0.01502514335902046,0.01502514335902046,0.01502514335902046,0.01502514335902046,0.00034541193624985445,0.00034541193624985445,0.00034541193624985445,0.00034541193624985445,3.4270995555629407,3.4270995555629407,3.4270995555629407,3.4270995555629407,106.0,106.0,106.0,106.0,1,1
0,0.010112286145165818,0.010112286145165818,0.010112286145165818,0.010112286145165818,54.0,54.0,54.0,54.0,0.008253952735914094,0.008253952735914094,0.008253952735914094,0.008253952735914094,0.00010220553872971726,0.00010220553872971726,0.00010220553872971726,0.00010220553872971726,1.4329041241045117,1.4329041241045117,1.4329041241045117,1.4329041241045117,97.0,97.0,97.0,97.0,1,6
0,0.06333998207264908,0.06333998207264908,0.06333998207264908,0.06333998207264908,84.0,84.0,84.0,84.0,0.048758364807181015,0.048758364807181015,0.048758364807181015,0.048758364807181015,0.004011691214344556,0.004011691214344556,0.004011691214344556,0.004011691214344556,12.037499694557223,12.037499694557223,12.037499694557223,12.037499694557223,110.0,110.0,110.0,110.0,1,5
0,0.017826041455968812,0.017826041455968812,0.017826041455968812,0.017826041455968812,72.0,72.0,72.0,72.0,0.013741495414481908,0.013741495414481908,0.013741495414481908,0.013741495414481908,0.00031766980657338834,0.00031766980657338834,0.00031766980657338834,0.00031766980657338834,2.9026486270830993,2.9026486270830993,2.9026486270830993,2.9026486270830993,103.0,103.0,103.0,103.0,1,2
0,0.008082132790911122,0.008082132790911122,0.008082132790911122,0.008082132790911122,63.0,63.0,63.0,63.0,0.006684093929138586,0.006684093929138586,0.006684093929138586,0.006684093929138586,6.5301090350161e-05,6.5301090350161e-05,6.5301090350161e-05,6.5301090350161e-05,1.3263472026038716,1.3263472026038716,1.3263472026038716,1.3263472026038716,105.0,105.0,105.0,105.0,1,6
0,0.04015097193801685,0.04015097193801685,0.04015097193801685,0.04015097193801685,94.0,94.0,94.0,94.0,0.032213979081689506,0.032213979081689506,0.032213979081689506,0.032213979081689506,0.0016120882563869122,0.0016120882563869122,0.0016120882563869122,0.0016120882563869122,8.501241972054268,8.501241972054268,8.501241972054268,8.501241972054268,123.0,123.0,123.0,123.0,1,5
0,0.006141642122296382,0.006141642122296382,0.006141642122296382,0.006141642122296382,43.0,43.0,43.0,43.0,0.005001537823873854,0.005001537823873854,0.005001537823873854,0.005001537823873854,3.768287930549845e-05,3.768287930549845e-05,3.768287930549845e-05,3.768287930549845e-05,0.8130363153204427,0.8130363153204427,0.8130363153204427,0.8130363153204427,100.0,100.0,100.0,100.0,1,3
0,0.01455223074577128,0.01455223074577128,0.01455223074577128,0.01455223074577128,75.0,75.0,75.0,75.0,0.011440194543959089,0.011440194543959089,0.011440194543959089,0.011440194543959089,0.00021173928048189602,0.00021173928048189602,0.00021173928048189602,0.00021173928048189602,2.5639221432846258,2.5639221432846258,2.5639221432846258,2.5639221432846258,102.0,102.0,102.0,102.0,1,2
0,0.013611040731963859,0.013611040731963859,0.013611040731963859,0.013611040731963859,66.0,66.0,66.0,66.0,0.010554805710198978,0.010554805710198978,0.010554805710198978,0.010554805710198978,0.00018524068783851912,0.00018524068783851912,0.00018524068783851912,0.00018524068783851912,2.269262418526815,2.269262418526815,2.269262418526815,2.269262418526815,108.0,108.0,108.0,108.0,1,1
0,0.01733771555689827,0.01733771555689827,0.01733771555689827,0.01733771555689827,56.0,56.0,56.0,56.0,0.0143324438739727,0.0143324438739727,0.0143324438739727,0.0143324438739727,0.0003003320074111331,0.0003003320074111331,0.0003003320074111331,0.0003003320074111331,2.497735542323789,2.497735542323789,2.497735542323789,2.497735542323789,98.0,98.0,98.0,98.0,1,4
0,0.009922867178365056,0.009922867178365056,0.009922867178365056,0.009922867178365056,63.0,63.0,63.0,63.0,0.007779903398520198,0.007779903398520198,0.007779903398520198,0.007779903398520198,9.844919080775422e-05,9.844919080775422e-05,9.844919080775422e-05,9.844919080775422e-05,1.482477634359369,1.482477634359369,1.482477634359369,1.482477634359369,94.0,94.0,94.0,94.0,1,6
0,0.00759398919660087,0.00759398919660087,0.00759398919660087,0.00759398919660087,57.0,57.0,57.0,57.0,0.006041240093990505,0.006041240093990505,0.006041240093990505,0.006041240093990505,5.766391711172249e-05,5.766391711172249e-05,5.766391711172249e-05,5.766391711172249e-05,1.1938476497406636,1.1938476497406636,1.1938476497406636,1.1938476497406636,103.0,103.0,103.0,103.0,1,3
0,0.017128521458853695,0.017128521458853695,0.017128521458853695,0.017128521458853695,83.0,83.0,83.0,83.0,0.013042391456087807,0.013042391456087807,0.013042391456087807,0.013042391456087807,0.0002933454687874072,0.0002933454687874072,0.0002933454687874072,0.0002933454687874072,3.1680478954475655,3.1680478954475655,3.1680478954475655,3.1680478954475655,110.0,110.0,110.0,110.0,1,1
0,0.03979978743426067,0.03979978743426067,0.03979978743426067,0.03979978743426067,76.0,76.0,76.0,76.0,0.03044366395920092,0.03044366395920092,0.03044366395920092,0.03044366395920092,0.0015840136694107493,0.0015840136694107493,0.0015840136694107493,0.0015840136694107493,7.517808728860568,7.517808728860568,7.517808728860568,7.517808728860568,99.0,99.0,99.0,99.0,1,5
0,0.01272125831129506,0.01272125831129506,0.01272125831129506,0.01272125831129506,58.0,58.0,58.0,58.0,0.010240209753722617,0.010240209753722617,0.010240209753722617,0.010240209753722617,0.00016182674644088404,0.00016182674644088404,0.00016182674644088404,0.00016182674644088404,1.9064042536381722,1.9064042536381722,1.9064042536381722,1.9064042536381722,105.0,105.0,105.0,105.0,1,4
0,0.012801039031512619,0.012801039031512619,0.012801039031512619,0.012801039031512619,72.0,72.0,72.0,72.0,0.010342060201820491,0.010342060201820491,0.010342060201820491,0.010342060201820491,0.00016386620196221378,0.00016386620196221378,0.00016386620196221378,0.00016386620196221378,2.1835584343279972,2.1835584343279972,2.1835584343279972,2.1835584343279972,93.0,93.0,93.0,93.0,1,2
0,0.02067192712510927,0.02067192712510927,0.02067192712510927,0.02067192712510927,66.0,66.0,66.0,66.0,0.015274974574767133,0.015274974574767133,0.015274974574767133,0.015274974574767133,0.0004272048050735029,0.0004272048050735029,0.0004272048050735029,0.0004272048050735029,2.966190599721612,2.966190599721612,2.966190599721612,2.966190599721612,97.0,97.0,97.0,97.0,1,4
0,0.020663520992039535,0.020663520992039535,0.020663520992039535,0.020663520992039535,72.0,72.0,72.0,72.0,0.014880017355529226,0.014880017355529226,0.014880017355529226,0.014880017355529226,0.00042684706647977855,0.00042684706647977855,0.00042684706647977855,0.00042684706647977855,3.2442240975439365,3.2442240975439365,3.2442240975439365,3.2442240975439365,95.0,95.0,95.0,95.0,1,2
0,0.051767010495851966,0.051767010495851966,0.051767010495851966,0.051767010495851966,78.0,78.0,78.0,78.0,0.03985654826343682,0.03985654826343682,0.03985654826343682,0.03985654826343682,0.0026797748846344445,0.0026797748846344445,0.0026797748846344445,0.0026797748846344445,9.416035898587708,9.416035898587708,9.416035898587708,9.416035898587708,107.0,107.0,107.0,107.0,1,5
0,0.016131192604906187,0.016131192604906187,0.016131192604906187,0.016131192604906187,94.0,94.0,94.0,94.0,0.012546441511943271,0.012546441511943271,0.012546441511943271,0.012546441511943271,0.0002602103344673956,0.0002602103344673956,0.0002602103344673956,0.0002602103344673956,3.1864041645381205,3.1864041645381205,3.1864041645381205,3.1864041645381205,119.0,119.0,119.0,119.0,1,1
0,0.012490824196922268,0.012490824196922268,0.012490824196922268,0.012490824196922268,72.0,72.0,72.0,72.0,0.01022728714544463,0.01022728714544463,0.01022728714544463,0.01022728714544463,0.00015591940855996762,0.00015591940855996762,0.00015591940855996762,0.00015591940855996762,2.0596555282729248,2.0596555282729248,2.0596555282729248,2.0596555282729248,104.0,104.0,104.0,104.0,1,6
0,0.006779360465641234,0.006779360465641234,0.006779360465641234,0.006779360465641234,58.0,58.0,58.0,58.0,0.005584732884413271,0.005584732884413271,0.005584732884413271,0.005584732884413271,4.595445284922149e-05,4.595445284922149e-05,4.595445284922149e-05,4.595445284922149e-05,1.018956289606838,1.018956289606838,1.018956289606838,1.018956289606838,106.0,106.0,106.0,106.0,1,3
0,0.01400401793983429,0.01400401793983429,0.01400401793983429,0.01400401793983429,76.0,76.0,76.0,76.0,0.010702777560497756,0.010702777560497756,0.010702777560497756,0.010702777560497756,0.00019609750732143687,0.00019609750732143687,0.00019609750732143687,0.00019609750732143687,2.4022008677113393,2.4022008677113393,2.4022008677113393,2.4022008677113393,94.0,94.0,94.0,94.0,1,2
0,0.013157013029026334,0.013157013029026334,0.013157013029026334,0.013157013029026334,92.0,92.0,92.0,92.0,0.010586621395250103,0.010586621395250103,0.010586621395250103,0.010586621395250103,0.00017310278036864049,0.00017310278036864049,0.00017310278036864049,0.00017310278036864049,2.5819547951288193,2.5819547951288193,2.5819547951288193,2.5819547951288193,107.0,107.0,107.0,107.0,1,1
0,0.06403263774813132,0.06403263774813132,0.06403263774813132,0.06403263774813132,83.0,83.0,83.0,83.0,0.05055491954225321,0.05055491954225321,0.05055491954225321,0.05055491954225321,0.004099990945596925,0.004099990945596925,0.004099990945596925,0.004099990945596925,12.436607794678805,12.436607794678805,12.436607794678805,12.436607794678805,108.0,108.0,108.0,108.0,1,5
0,0.005767774695229944,0.005767774695229944,0.005767774695229944,0.005767774695229944,45.0,45.0,45.0,45.0,0.004720033869717881,0.004720033869717881,0.004720033869717881,0.004720033869717881,3.3241568657393806e-05,3.3241568657393806e-05,3.3241568657393806e-05,3.3241568657393806e-05,0.7956683651992803,0.7956683651992803,0.7956683651992803,0.7956683651992803,109.0,109.0,109.0,109.0,1,3
0,0.006700784018153177,0.006700784018153177,0.006700784018153177,0.006700784018153177,61.0,61.0,61.0,61.0,0.0052765050910920964,0.0052765050910920964,0.0052765050910920964,0.0052765050910920964,4.489715757071107e-05,4.489715757071107e-05,4.489715757071107e-05,4.489715757071107e-05,0.9751788000341647,0.9751788000341647,0.9751788000341647,0.9751788000341647,106.0,106.0,106.0,106.0,1,6
0,0.016308419371153057,0.016308419371153057,0.016308419371153057,0.016308419371153057,67.0,67.0,67.0,67.0,0.012026636098441169,0.012026636098441169,0.012026636098441169,0.012026636098441169,0.0002658803523826378,0.0002658803523826378,0.0002658803523826378,0.0002658803523826378,2.5731944373005757,2.5731944373005757,2.5731944373005757,2.5731944373005757,81.0,81.0,81.0,81.0,1,4
0,0.01241790035207114,0.01241790035207114,0.01241790035207114,0.01241790035207114,62.0,62.0,62.0,62.0,0.009286665680443658,0.009286665680443658,0.009286665680443658,0.009286665680443658,0.00015406942925036331,0.00015406942925036331,0.00015406942925036331,0.00015406942925036331,1.7172283428153157,1.7172283428153157,1.7172283428153157,1.7172283428153157,90.0,90.0,90.0,90.0,1,4
0,0.017301263722904112,0.017301263722904112,0.017301263722904112,0.017301263722904112,80.0,80.0,80.0,80.0,0.012776756210501417,0.012776756210501417,0.012776756210501417,0.012776756210501417,0.0002992259230051796,0.0002992259230051796,0.0002992259230051796,0.0002992259230051796,2.879064376827353,2.879064376827353,2.879064376827353,2.879064376827353,100.0,100.0,100.0,100.0,1,2
0,0.008207551539112389,0.008207551539112389,0.008207551539112389,0.008207551539112389,60.0,60.0,60.0,60.0,0.006583984570954766,0.006583984570954766,0.006583984570954766,0.006583984570954766,6.735102324835081e-05,6.735102324835081e-05,6.735102324835081e-05,6.735102324835081e-05,1.2759429841478922,1.2759429841478922,1.2759429841478922,1.2759429841478922,101.0,101.0,101.0,101.0,1,6
0,0.017150834663310778,0.017150834663310778,0.017150834663310778,0.017150834663310778,92.0,92.0,92.0,92.0,0.013877200084082254,0.013877200084082254,0.013877200084082254,0.013877200084082254,0.00029414267953003094,0.00029414267953003094,0.00029414267953003094,0.00029414267953003094,3.352297063155441,3.352297063155441,3.352297063155441,3.352297063155441,125.0,125.0,125.0,125.0,1,1
0,0.0056077251272949186,0.0056077251272949186,0.0056077251272949186,0.0056077251272949186,47.0,47.0,47.0,47.0,0.004645320386435498,0.004645320386435498,0.004645320386435498,0.004645320386435498,3.144523451214803e-05,3.144523451214803e-05,3.144523451214803e-05,3.144523451214803e-05,0.7665498221507867,0.7665498221507867,0.7665498221507867,0.7665498221507867,90.0,90.0,90.0,90.0,1,3
0,0.03622990846101358,0.03622990846101358,0.03622990846101358,0.03622990846101358,82.0,82.0,82.0,82.0,0.027855099927494246,0.027855099927494246,0.027855099927494246,0.027855099927494246,0.0013124301059785873,0.0013124301059785873,0.0013124301059785873,0.0013124301059785873,7.175193532238161,7.175193532238161,7.175193532238161,7.175193532238161,116.0,116.0,116.0,116.0,1,5
0,0.009348641516868938,0.009348641516868938,0.009348641516868938,0.009348641516868938,77.0,77.0,77.0,77.0,0.007507606457445044,0.007507606457445044,0.007507606457445044,0.007507606457445044,8.73970284312213e-05,8.73970284312213e-05,8.73970284312213e-05,8.73970284312213e-05,1.5538063457364455,1.5538063457364455,1.5538063457364455,1.5538063457364455,110.0,110.0,110.0,110.0,1,2
0,0.010233130654738902,0.010233130654738902,0.010233130654738902,0.010233130654738902,54.0,54.0,54.0,54.0,0.007962009693506933,0.007962009693506933,0.007962009693506933,0.007962009693506933,0.00010468196359492063,0.00010468196359492063,0.00010468196359492063,0.00010468196359492063,1.4260315852397012,1.4260315852397012,1.4260315852397012,1.4260315852397012,100.0,100.0,100.0,100.0,1,4
0,0.0058280254709599305,0.0058280254709599305,0.0058280254709599305,0.0058280254709599305,52.0,52.0,52.0,52.0,0.004768212151110681,0.004768212151110681,0.004768212151110681,0.004768212151110681,3.393006228773364e-05,3.393006228773364e-05,3.393006228773364e-05,3.393006228773364e-05,0.7869443715626195,0.7869443715626195,0.7869443715626195,0.7869443715626195,91.0,91.0,91.0,91.0,1,3
0,0.01164684668177639,0.01164684668177639,0.01164684668177639,0.01164684668177639,59.0,59.0,59.0,59.0,0.009218397308169096,0.009218397308169096,0.009218397308169096,0.009218397308169096,0.00013561162977084482,0.00013561162977084482,0.00013561162977084482,0.00013561162977084482,1.835690060699743,1.835690060699743,1.835690060699743,1.835690060699743,102.0,102.0,102.0,102.0,1,6
0,0.05886958267490918,0.05886958267490918,0.05886958267490918,0.05886958267490918,92.0,92.0,92.0,92.0,0.043602016504757396,0.043602016504757396,0.043602016504757396,0.043602016504757396,0.0034651772830965226,0.0034651772830965226,0.0034651772830965226,0.0034651772830965226,11.604442836582951,11.604442836582951,11.604442836582951,11.604442836582951,101.0,101.0,101.0,101.0,1,5
0,0.016469712971954393,0.016469712971954393,0.016469712971954393,0.016469712971954393,81.0,81.0,81.0,81.0,0.012412557932459288,0.012412557932459288,0.012412557932459288,0.012412557932459288,0.0002712382848812674,0.0002712382848812674,0.0002712382848812674,0.0002712382848812674,3.0932730696887414,3.0932730696887414,3.0932730696887414,3.0932730696887414,114.0,114.0,114.0,114.0,1,1
0,0.009256182108886403,0.009256182108886403,0.009256182108886403,0.009256182108886403,75.0,75.0,75.0,75.0,0.007115666398765224,0.007115666398765224,0.007115666398765224,0.007115666398765224,8.56708654365784e-05,8.56708654365784e-05,8.56708654365784e-05,8.56708654365784e-05,1.4352068236764939,1.4352068236764939,1.4352068236764939,1.4352068236764939,106.0,106.0,106.0,106.0,1,6
0,0.0659424779335475,0.0659424779335475,0.0659424779335475,0.0659424779335475,88.0,88.0,88.0,88.0,0.05023947059389844,0.05023947059389844,0.05023947059389844,0.05023947059389844,0.004348134681354394,0.004348134681354394,0.004348134681354394,0.004348134681354394,12.62906262601722,12.62906262601722,12.62906262601722,12.62906262601722,114.0,114.0,114.0,114.0,1,5
0,0.005752401467939358,0.005752401467939358,0.005752401467939358,0.005752401467939358,44.0,44.0,44.0,44.0,0.004736367492135918,0.004736367492135918,0.004736367492135918,0.004736367492135918,3.30800357467231e-05,3.30800357467231e-05,3.30800357467231e-05,3.30800357467231e-05,0.7207476025392247,0.7207476025392247,0.7207476025392247,0.7207476025392247,106.0,106.0,106.0,106.0,1,3
0,0.01299085564851101,0.01299085564851101,0.01299085564851101,0.01299085564851101,80.0,80.0,80.0,80.0,0.010439015555007028,0.010439015555007028,0.010439015555007028,0.010439015555007028,0.00016874514010174505,0.00016874514010174505,0.00016874514010174505,0.00016874514010174505,2.5160675636770256,2.5160675636770256,2.5160675636770256,2.5160675636770256,117.0,117.0,117.0,117.0,1,1
0,0.011041732475118792,0.011041732475118792,0.011041732475118792,0.011041732475118792,55.0,55.0,55.0,55.0,0.008447213075104348,0.008447213075104348,0.008447213075104348,0.008447213075104348,0.00012189336750182004,0.00012189336750182004,0.00012189336750182004,0.00012189336750182004,1.6793565428782613,1.6793565428782613,1.6793565428782613,1.6793565428782613,90.0,90.0,90.0,90.0,1,4
0,0.012495011829553362,0.012495011829553362,0.012495011829553362,0.012495011829553362,66.0,66.0,66.0,66.0,0.009626241849412133,0.009626241849412133,0.009626241849412133,0.009626241849412133,0.00015609741893509994,0.00015609741893509994,0.00015609741893509994,0.00015609741893509994,2.177963829619885,2.177963829619885,2.177963829619885,2.177963829619885,101.0,101.0,101.0,101.0,1,2
0,0.016996415270721446,0.016996415270721446,0.016996415270721446,0.016996415270721446,80.0,80.0,80.0,80.0,0.013397731252610097,0.013397731252610097,0.013397731252610097,0.013397731252610097,0.00028878690146028594,0.00028878690146028594,0.00028878690146028594,0.00028878690146028594,3.2098797010764324,3.2098797010764324,3.2098797010764324,3.2098797010764324,122.0,122.0,122.0,122.0,1,1
0,0.010876256454525408,0.010876256454525408,0.010876256454525408,0.010876256454525408,60.0,60.0,60.0,60.0,0.008586299558586774,0.008586299558586774,0.008586299558586774,0.008586299558586774,0.00011822957489736869,0.00011822957489736869,0.00011822957489736869,0.00011822957489736869,1.660956691767951,1.660956691767951,1.660956691767951,1.660956691767951,103.0,103.0,103.0,103.0,1,6
0,0.022920262937981203,0.022920262937981203,0.022920262937981203,0.022920262937981203,55.0,55.0,55.0,55.0,0.018963063657098628,0.018963063657098628,0.018963063657098628,0.018963063657098628,0.0005253087999991682,0.0005253087999991682,0.0005253087999991682,0.0005253087999991682,3.247743417730687,3.247743417730687,3.247743417730687,3.247743417730687,93.0,93.0,93.0,93.0,1,4
0,0.012052067093473427,0.012052067093473427,0.012052067093473427,0.012052067093473427,79.0,79.0,79.0,79.0,0.009034023920918578,0.009034023920918578,0.009034023920918578,0.009034023920918578,0.00014524361224583276,0.00014524361224583276,0.00014524361224583276,0.00014524361224583276,2.1727047845389764,2.1727047845389764,2.1727047845389764,2.1727047845389764,106.0,106.0,106.0,106.0,1,2
0,0.04519626033483051,0.04519626033483051,0.04519626033483051,0.04519626033483051,77.0,77.0,77.0,77.0,0.03456923217596315,0.03456923217596315,0.03456923217596315,0.03456923217596315,0.0020406561611877555,0.0020406561611877555,0.0020406561611877555,0.0020406561611877555,7.82952701364858,7.82952701364858,7.82952701364858,7.82952701364858,93.0,93.0,93.0,93.0,1,5
0,0.00582314118869643,0.00582314118869643,0.00582314118869643,0.00582314118869643,42.0,42.0,42.0,42.0,0.004712308648539631,0.004712308648539631,0.004712308648539631,0.004712308648539631,3.38959708621719e-05,3.38959708621719e-05,3.38959708621719e-05,3.38959708621719e-05,0.6862489197324511,0.6862489197324511,0.6862489197324511,0.6862489197324511,100.0,100.0,100.0,100.0,1,3
0,0.016403949558939028,0.016403949558939028,0.016403949558939028,0.016403949558939028,73.0,73.0,73.0,73.0,0.013240220771994238,0.013240220771994238,0.013240220771994238,0.013240220771994238,0.00026894658832107626,0.00026894658832107626,0.00026894658832107626,0.00026894658832107626,2.897543405174571,2.897543405174571,2.897543405174571,2.897543405174571,106.0,106.0,106.0,106.0,1,1
0,0.006699945934783628,0.006699945934783628,0.006699945934783628,0.006699945934783628,54.0,54.0,54.0,54.0,0.005480170700572155,0.005480170700572155,0.005480170700572155,0.005480170700572155,4.487501982618095e-05,4.487501982618095e-05,4.487501982618095e-05,4.487501982618095e-05,0.8714568810199341,0.8714568810199341,0.8714568810199341,0.8714568810199341,102.0,102.0,102.0,102.0,1,3
0,0.017576727578529225,0.017576727578529225,0.017576727578529225,0.017576727578529225,78.0,78.0,78.0,78.0,0.012976407165931863,0.012976407165931863,0.012976407165931863,0.012976407165931863,0.0003089309066318246,0.0003089309066318246,0.0003089309066318246,0.0003089309066318246,2.964033356875135,2.964033356875135,2.964033356875135,2.964033356875135,107.0,107.0,107.0,107.0,1,2
0,0.014568035450293369,0.014568035450293369,0.014568035450293369,0.014568035450293369,59.0,59.0,59.0,59.0,0.011149061358538713,0.011149061358538713,0.011149061358538713,0.011149061358538713,0.00021222732191444955,0.00021222732191444955,0.00021222732191444955,0.00021222732191444955,2.102940254554629,2.102940254554629,2.102940254554629,2.102940254554629,93.0,93.0,93.0,93.0,1,4
0,0.010847222949653105,0.010847222949653105,0.010847222949653105,0.010847222949653105,66.0,66.0,66.0,66.0,0.008451041951189436,0.008451041951189436,0.008451041951189436,0.008451041951189436,0.00011755304927956706,0.00011755304927956706,0.00011755304927956706,0.00011755304927956706,1.7392864253519487,1.7392864253519487,1.7392864253519487,1.7392864253519487,109.0,109.0,109.0,109.0,1,6
0,0.04402107764960204,0.04402107764960204,0.04402107764960204,0.04402107764960204,87.0,87.0,87.0,87.0,0.03253146023542157,0.03253146023542157,0.03253146023542157,0.03253146023542157,0.0019377881988615758,0.0019377881988615758,0.0019377881988615758,0.0019377881988615758,8.46100177859788,8.46100177859788,8.46100177859788,8.46100177859788,111.0,111.0,111.0,111.0,1,5
0,0.007868718065240522,0.007868718065240522,0.007868718065240522,0.007868718065240522,61.0,61.0,61.0,61.0,0.006307511408039661,0.006307511408039661,0.006307511408039661,0.006307511408039661,6.191343316381985e-05,6.191343316381985e-05,6.191343316381985e-05,6.191343316381985e-05,1.2214271576154285,1.2214271576154285,1.2214271576154285,1.2214271576154285,106.0,106.0,106.0,106.0,1,6
0,0.013015293704517495,0.013015293704517495,0.013015293704517495,0.013015293704517495,67.0,67.0,67.0,67.0,0.009522002874476852,0.009522002874476852,0.009522002874476852,0.009522002874476852,0.00016939341092237333,0.00016939341092237333,0.00016939341092237333,0.00016939341092237333,1.9152330462712157,1.9152330462712157,1.9152330462712157,1.9152330462712157,100.0,100.0,100.0,100.0,1,4
0,0.03207242699294876,0.03207242699294876,0.03207242699294876,0.03207242699294876,76.0,76.0,76.0,76.0,0.02480239921342578,0.02480239921342578,0.02480239921342578,0.02480239921342578,0.0010285286436060653,0.0010285286436060653,0.0010285286436060653,0.0010285286436060653,5.706481746053554,5.706481746053554,5.706481746053554,5.706481746053554,99.0,99.0,99.0,99.0,1,5
0,0.005952669619891686,0.005952669619891686,0.005952669619891686,0.005952669619891686,59.0,59.0,59.0,59.0,0.004741672534591579,0.004741672534591579,0.004741672534591579,0.004741672534591579,3.5432050422072586e-05,3.5432050422072586e-05,3.5432050422072586e-05,3.5432050422072586e-05,0.8452705519098567,0.8452705519098567,0.8452705519098567,0.8452705519098567,102.0,102.0,102.0,102.0,1,3
0,0.01899281702625804,0.01899281702625804,0.01899281702625804,0.01899281702625804,89.0,89.0,89.0,89.0,0.01532464733062603,0.01532464733062603,0.01532464733062603,0.01532464733062603,0.00036068163741887415,0.00036068163741887415,0.00036068163741887415,0.00036068163741887415,3.860536842579241,3.860536842579241,3.860536842579241,3.860536842579241,116.0,116.0,116.0,116.0,1,1
0,0.018365803963163972,0.018365803963163972,0.018365803963163972,0.018365803963163972,66.0,66.0,66.0,66.0,0.01439740232637714,0.01439740232637714,0.01439740232637714,0.01439740232637714,0.00033730169418426175,0.00033730169418426175,0.00033730169418426175,0.00033730169418426175,3.14231900136319,3.14231900136319,3.14231900136319,3.14231900136319,102.0,102.0,102.0,102.0,1,2
0,0.009266662180780377,0.009266662180780377,0.009266662180780377,0.009266662180780377,48.0,48.0,48.0,48.0,0.007070087877103782,0.007070087877103782,0.007070087877103782,0.007070087877103782,8.587094146096548e-05,8.587094146096548e-05,8.587094146096548e-05,8.587094146096548e-05,1.1334156981164578,1.1334156981164578,1.1334156981164578,1.1334156981164578,98.0,98.0,98.0,98.0,1,4
0,0.014018946254667776,0.014018946254667776,0.014018946254667776,0.014018946254667776,78.0,78.0,78.0,78.0,0.01100508074709651,0.01100508074709651,0.01100508074709651,0.01100508074709651,0.0001965130390055858,0.0001965130390055858,0.0001965130390055858,0.0001965130390055858,2.6164678618605857,2.6164678618605857,2.6164678618605857,2.6164678618605857,119.0,119.0,119.0,119.0,1,1
0,0.008394973268773887,0.008394973268773887,0.008394973268773887,0.008394973268773887,56.0,56.0,56.0,56.0,0.00693611030999522,0.00693611030999522,0.00693611030999522,0.00693611030999522,7.04749079732784e-05,7.04749079732784e-05,7.04749079732784e-05,7.04749079732784e-05,1.2823853666570901,1.2823853666570901,1.2823853666570901,1.2823853666570901,102.0,102.0,102.0,102.0,1,6
0,0.006413765256766721,0.006413765256766721,0.006413765256766721,0.006413765256766721,40.0,40.0,40.0,40.0,0.005252676090122555,0.005252676090122555,0.005252676090122555,0.005252676090122555,4.1132187123181715e-05,4.1132187123181715e-05,4.1132187123181715e-05,4.1132187123181715e-05,0.809186451604139,0.809186451604139,0.809186451604139,0.809186451604139,105.0,105.0,105.0,105.0,1,3
0,0.011526250042861348,0.011526250042861348,0.011526250042861348,0.011526250042861348,71.0,71.0,71.0,71.0,0.00882878996793469,0.00882878996793469,0.00882878996793469,0.00882878996793469,0.00013285216928302145,0.00013285216928302145,0.00013285216928302145,0.00013285216928302145,1.9304003722857603,1.9304003722857603,1.9304003722857603,1.9304003722857603,104.0,104.0,104.0,104.0,1,2
0,0.03437950739103883,0.03437950739103883,0.03437950739103883,0.03437950739103883,79.0,79.0,79.0,79.0,0.026892392799556335,0.026892392799556335,0.026892392799556335,0.026892392799556335,0.0011818169008216014,0.0011818169008216014,0.0011818169008216014,0.0011818169008216014,6.480944573838026,6.480944573838026,6.480944573838026,6.480944573838026,96.0,96.0,96.0,96.0,1,5
0,0.013661975475064652,0.013661975475064652,0.013661975475064652,0.013661975475064652,60.0,60.0,60.0,60.0,0.010742721712763675,0.010742721712763675,0.010742721712763675,0.010742721712763675,0.0001866448167832054,0.0001866448167832054,0.0001866448167832054,0.0001866448167832054,2.076442709079996,2.076442709079996,2.076442709079996,2.076442709079996,96.0,96.0,96.0,96.0,1,4
0,0.009888361542580855,0.009888361542580855,0.009888361542580855,0.009888361542580855,62.0,62.0,62.0,62.0,0.007843359803876723,0.007843359803876723,0.007843359803876723,0.007843359803876723,9.77524053051707e-05,9.77524053051707e-05,9.77524053051707e-05,9.77524053051707e-05,1.4450369411367316,1.4450369411367316,1.4450369411367316,1.4450369411367316,96.0,96.0,96.0,96.0,1,6
0,0.05741100393199109,0.05741100393199109,0.05741100393199109,0.05741100393199109,91.0,91.0,91.0,91.0,0.042894758304072626,0.042894758304072626,0.042894758304072626,0.042894758304072626,0.003295969038703607,0.003295969038703607,0.003295969038703607,0.003295969038703607,11.040992548060407,11.040992548060407,11.040992548060407,11.040992548060407,114.0,114.0,114.0,114.0,1,5
0,0.015780858575215946,0.015780858575215946,0.015780858575215946,0.015780858575215946,81.0,81.0,81.0,81.0,0.012780328411852046,0.012780328411852046,0.012780328411852046,0.012780328411852046,0.0002490314679325235,0.0002490314679325235,0.0002490314679325235,0.0002490314679325235,2.820816835914223,2.820816835914223,2.820816835914223,2.820816835914223,106.0,106.0,106.0,106.0,1,1
0,0.006842735262228872,0.006842735262228872,0.006842735262228872,0.006842735262228872,60.0,60.0,60.0,60.0,0.005263586250443618,0.005263586250443618,0.005263586250443618,0.005263586250443618,4.6822962556416666e-05,4.6822962556416666e-05,4.6822962556416666e-05,4.6822962556416666e-05,0.8943976369660699,0.8943976369660699,0.8943976369660699,0.8943976369660699,108.0,108.0,108.0,108.0,1,3
0,0.014422761556877975,0.014422761556877975,0.014422761556877975,0.014422761556877975,78.0,78.0,78.0,78.0,0.011086214986945913,0.011086214986945913,0.011086214986945913,0.011086214986945913,0.00020801531167766957,0.00020801531167766957,0.00020801531167766957,0.00020801531167766957,2.40411745830824,2.40411745830824,2.40411745830824,2.40411745830824,108.0,108.0,108.0,108.0,1,2
0,0.015252346235053947,0.015252346235053947,0.015252346235053947,0.015252346235053947,76.0,76.0,76.0,76.0,0.011780367866028851,0.011780367866028851,0.011780367866028851,0.011780367866028851,0.00023263330298852548,0.00023263330298852548,0.00023263330298852548,0.00023263330298852548,2.6506237274950992,2.6506237274950992,2.6506237274950992,2.6506237274950992,99.0,99.0,99.0,99.0,1,2
0,0.03675177324452168,0.03675177324452168,0.03675177324452168,0.03675177324452168,88.0,88.0,88.0,88.0,0.027925180708843686,0.027925180708843686,0.027925180708843686,0.027925180708843686,0.0013505946684324352,0.0013505946684324352,0.0013505946684324352,0.0013505946684324352,7.031771721569164,7.031771721569164,7.031771721569164,7.031771721569164,115.0,115.0,115.0,115.0,1,5
0,0.006146895457774771,0.006146895457774771,0.006146895457774771,0.006146895457774771,56.0,56.0,56.0,56.0,0.004778673327208396,0.004778673327208396,0.004778673327208396,0.004778673327208396,3.7769530882292036e-05,3.7769530882292036e-05,3.7769530882292036e-05,3.7769530882292036e-05,0.8922725999743318,0.8922725999743318,0.8922725999743318,0.8922725999743318,113.0,113.0,113.0,113.0,1,3
0,0.017592507524812225,0.017592507524812225,0.017592507524812225,0.017592507524812225,84.0,84.0,84.0,84.0,0.013685584320561548,0.013685584320561548,0.013685584320561548,0.013685584320561548,0.00030948858275753224,0.00030948858275753224,0.00030948858275753224,0.00030948858275753224,3.390314529417736,3.390314529417736,3.390314529417736,3.390314529417736,119.0,119.0,119.0,119.0,1,1
0,0.016243727768923636,0.016243727768923636,0.016243727768923636,0.016243727768923636,58.0,58.0,58.0,58.0,0.011139187718464751,0.011139187718464751,0.011139187718464751,0.011139187718464751,0.00026382364280105126,0.00026382364280105126,0.00026382364280105126,0.00026382364280105126,2.1165321565145847,2.1165321565145847,2.1165321565145847,2.1165321565145847,93.0,93.0,93.0,93.0,1,4
0,0.008229912198512941,0.008229912198512941,0.008229912198512941,0.008229912198512941,56.0,56.0,56.0,56.0,0.0066609779008016436,0.0066609779008016436,0.0066609779008016436,0.0066609779008016436,6.77240854228204e-05,6.77240854228204e-05,6.77240854228204e-05,6.77240854228204e-05,1.2676774535184852,1.2676774535184852,1.2676774535184852,1.2676774535184852,101.0,101.0,101.0,101.0,1,6
0,0.050343108247179226,0.050343108247179226,0.050343108247179226,0.050343108247179226,76.0,76.0,76.0,76.0,0.03886426325963629,0.03886426325963629,0.03886426325963629,0.03886426325963629,0.0025342962350797817,0.0025342962350797817,0.0025342962350797817,0.0025342962350797817,9.580532391973193,9.580532391973193,9.580532391973193,9.580532391973193,108.0,108.0,108.0,108.0,1,5
0,0.009299002626406578,0.009299002626406578,0.009299002626406578,0.009299002626406578,63.0,63.0,63.0,63.0,0.007361501128096812,0.007361501128096812,0.007361501128096812,0.007361501128096812,8.636981759228183e-05,8.636981759228183e-05,8.636981759228183e-05,8.636981759228183e-05,1.4075556579686817,1.4075556579686817,1.4075556579686817,1.4075556579686817,102.0,102.0,102.0,102.0,1,6
0,0.006036155326278476,0.006036155326278476,0.006036155326278476,0.006036155326278476,50.0,50.0,50.0,50.0,0.004831224105859112,0.004831224105859112,0.004831224105859112,0.004831224105859112,3.6370982943238135e-05,3.6370982943238135e-05,3.6370982943238135e-05,3.6370982943238135e-05,0.8474099113154696,0.8474099113154696,0.8474099113154696,0.8474099113154696,107.0,107.0,107.0,107.0,1,3
0,0.012642866545716546,0.012642866545716546,0.012642866545716546,0.012642866545716546,88.0,88.0,88.0,88.0,0.010156114171990381,0.010156114171990381,0.010156114171990381,0.010156114171990381,0.000159785521627994,0.000159785521627994,0.000159785521627994,0.000159785521627994,2.5489086357566992,2.5489086357566992,2.5489086357566992,2.5489086357566992,129.0,129.0,129.0,129.0,1,1
0,0.013897028001451995,0.013897028001451995,0.013897028001451995,0.013897028001451995,82.0,82.0,82.0,82.0,0.010675561808161848,0.010675561808161848,0.010675561808161848,0.010675561808161848,0.00019312109000623932,0.00019312109000623932,0.00019312109000623932,0.00019312109000623932,2.4404498815787985,2.4404498815787985,2.4404498815787985,2.4404498815787985,98.0,98.0,98.0,98.0,1,2
0,0.00541934213637794,0.00541934213637794,0.00541934213637794,0.00541934213637794,63.0,63.0,63.0,63.0,0.0044385105955427225,0.0044385105955427225,0.0044385105955427225,0.0044385105955427225,2.9369007964190162e-05,2.9369007964190162e-05,2.9369007964190162e-05,2.9369007964190162e-05,0.8231174343787028,0.8231174343787028,0.8231174343787028,0.8231174343787028,118.0,118.0,118.0,118.0,1,4
0,0.012353143454739543,0.012353143454739543,0.012353143454739543,0.012353143454739543,68.0,68.0,68.0,68.0,0.009229794575889247,0.009229794575889247,0.009229794575889247,0.009229794575889247,0.00015256230453585229,0.00015256230453585229,0.00015256230453585229,0.00015256230453585229,1.911366101823381,1.911366101823381,1.911366101823381,1.911366101823381,103.0,103.0,103.0,103.0,1,6
0,0.04165120022883257,0.04165120022883257,0.04165120022883257,0.04165120022883257,87.0,87.0,87.0,87.0,0.030822654648806683,0.030822654648806683,0.030822654648806683,0.030822654648806683,0.0017347779455741995,0.0017347779455741995,0.0017347779455741995,0.0017347779455741995,7.590280281405082,7.590280281405082,7.590280281405082,7.590280281405082,114.0,114.0,114.0,114.0,1,5
0,0.005101502109846007,0.005101502109846007,0.005101502109846007,0.005101502109846007,42.0,42.0,42.0,42.0,0.004131253877810701,0.004131253877810701,0.004131253877810701,0.004131253877810701,2.6021985807353782e-05,2.6021985807353782e-05,2.6021985807353782e-05,2.6021985807353782e-05,0.6677161948189967,0.6677161948189967,0.6677161948189967,0.6677161948189967,108.0,108.0,108.0,108.0,1,3
0,0.005837434434762903,0.005837434434762903,0.005837434434762903,0.005837434434762903,52.0,52.0,52.0,52.0,0.0047542822147410456,0.0047542822147410456,0.0047542822147410456,0.0047542822147410456,3.4057246847527515e-05,3.4057246847527515e-05,3.4057246847527515e-05,3.4057246847527515e-05,0.85357856341145,0.85357856341145,0.85357856341145,0.85357856341145,108.0,108.0,108.0,108.0,1,4
0,0.013322677365478253,0.013322677365478253,0.013322677365478253,0.013322677365478253,79.0,79.0,79.0,79.0,0.010710196071675204,0.010710196071675204,0.010710196071675204,0.010710196071675204,0.00017749031276990756,0.00017749031276990756,0.00017749031276990756,0.00017749031276990756,2.6463788922699125,2.6463788922699125,2.6463788922699125,2.6463788922699125,118.0,118.0,118.0,118.0,1,1
0,0.012084248010867844,0.012084248010867844,0.012084248010867844,0.012084248010867844,66.0,66.0,66.0,66.0,0.009199610655698047,0.009199610655698047,0.009199610655698047,0.009199610655698047,0.0001460226621472394,0.0001460226621472394,0.0001460226621472394,0.0001460226621472394,1.953567006778869,1.953567006778869,1.953567006778869,1.953567006778869,96.0,96.0,96.0,96.0,1,2
0,0.015199822241144965,0.015199822241144965,0.015199822241144965,0.015199822241144965,79.0,79.0,79.0,79.0,0.012007859784945816,0.012007859784945816,0.012007859784945816,0.012007859784945816,0.0002309668524080636,0.0002309668524080636,0.0002309668524080636,0.0002309668524080636,2.7321893237761667,2.7321893237761667,2.7321893237761667,2.7321893237761667,105.0,105.0,105.0,105.0,1,1
0,0.013997006516516308,0.013997006516516308,0.013997006516516308,0.013997006516516308,64.0,64.0,64.0,64.0,0.011161819168594213,0.011161819168594213,0.011161819168594213,0.011161819168594213,0.00019591089459175586,0.00019591089459175586,0.00019591089459175586,0.00019591089459175586,2.4113910179407076,2.4113910179407076,2.4113910179407076,2.4113910179407076,92.0,92.0,92.0,92.0,1,2
0,0.006570575969455158,0.006570575969455158,0.006570575969455158,0.006570575969455158,52.0,52.0,52.0,52.0,0.004721476527942969,0.004721476527942969,0.004721476527942969,0.004721476527942969,4.315065719824276e-05,4.315065719824276e-05,4.315065719824276e-05,4.315065719824276e-05,0.8359237053860578,0.8359237053860578,0.8359237053860578,0.8359237053860578,105.0,105.0,105.0,105.0,1,3
0,0.007879295024586619,0.007879295024586619,0.007879295024586619,0.007879295024586619,67.0,67.0,67.0,67.0,0.006061333471468512,0.006061333471468512,0.006061333471468512,0.006061333471468512,6.203013600313208e-05,6.203013600313208e-05,6.203013600313208e-05,6.203013600313208e-05,1.1569333021032704,1.1569333021032704,1.1569333021032704,1.1569333021032704,110.0,110.0,110.0,110.0,1,6
0,0.0368157894498218,0.0368157894498218,0.0368157894498218,0.0368157894498218,85.0,85.0,85.0,85.0,0.027618431048643356,0.027618431048643356,0.027618431048643356,0.027618431048643356,0.0013553924181583838,0.0013553924181583838,0.0013553924181583838,0.0013553924181583838,7.112916964816194,7.112916964816194,7.112916964816194,7.112916964816194,98.0,98.0,98.0,98.0,1,5
0,0.0101915140333224,0.0101915140333224,0.0101915140333224,0.0101915140333224,62.0,62.0,62.0,62.0,0.00721858422966501,0.00721858422966501,0.00721858422966501,0.00721858422966501,0.00010384168254022816,0.00010384168254022816,0.00010384168254022816,0.00010384168254022816,1.4139247354111162,1.4139247354111162,1.4139247354111162,1.4139247354111162,90.0,90.0,90.0,90.0,1,4
0,0.005631737388315622,0.005631737388315622,0.005631737388315622,0.005631737388315622,52.0,52.0,52.0,52.0,0.004507948312294769,0.004507948312294769,0.004507948312294769,0.004507948312294769,3.1707867901278934e-05,3.1707867901278934e-05,3.1707867901278934e-05,3.1707867901278934e-05,0.7450977185484908,0.7450977185484908,0.7450977185484908,0.7450977185484908,92.0,92.0,92.0,92.0,1,3
0,0.009421735356159644,0.009421735356159644,0.009421735356159644,0.009421735356159644,58.0,58.0,58.0,58.0,0.0073221475679384395,0.0073221475679384395,0.0073221475679384395,0.0073221475679384395,8.876700873649036e-05,8.876700873649036e-05,8.876700873649036e-05,8.876700873649036e-05,1.2353957781054887,1.2353957781054887,1.2353957781054887,1.2353957781054887,105.0,105.0,105.0,105.0,1,4
0,0.011473114931197832,0.011473114931197832,0.011473114931197832,0.011473114931197832,76.0,76.0,76.0,76.0,0.008712181513149534,0.008712181513149534,0.008712181513149534,0.008712181513149534,0.0001316305653948146,0.0001316305653948146,0.0001316305653948146,0.0001316305653948146,1.92297131878356,1.92297131878356,1.92297131878356,1.92297131878356,107.0,107.0,107.0,107.0,1,2
0,0.01131305382919536,0.01131305382919536,0.01131305382919536,0.01131305382919536,54.0,54.0,54.0,54.0,0.008849729957343608,0.008849729957343608,0.008849729957343608,0.008849729957343608,0.0001279842037462681,0.0001279842037462681,0.0001279842037462681,0.0001279842037462681,1.5926441041729518,1.5926441041729518,1.5926441041729518,1.5926441041729518,87.0,87.0,87.0,87.0,1,6
0,0.01496622428398005,0.01496622428398005,0.01496622428398005,0.01496622428398005,78.0,78.0,78.0,78.0,0.011603186731030397,0.011603186731030397,0.011603186731030397,0.011603186731030397,0.00022396456449880734,0.00022396456449880734,0.00022396456449880734,0.00022396456449880734,2.6532321941069834,2.6532321941069834,2.6532321941069834,2.6532321941069834,107.0,107.0,107.0,107.0,1,1
0,0.04352693368038552,0.04352693368038552,0.04352693368038552,0.04352693368038552,74.0,74.0,74.0,74.0,0.03306275150114403,0.03306275150114403,0.03306275150114403,0.03306275150114403,0.0018945673622542056,0.0018945673622542056,0.0018945673622542056,0.0018945673622542056,8.19567845158414,8.19567845158414,8.19567845158414,8.19567845158414,104.0,104.0,104.0,104.0,1,5
0,0.005602153402968859,0.005602153402968859,0.005602153402968859,0.005602153402968859,52.0,52.0,52.0,52.0,0.004447753231580004,0.004447753231580004,0.004447753231580004,0.004447753231580004,3.1370414820083996e-05,3.1370414820083996e-05,3.1370414820083996e-05,3.1370414820083996e-05,0.7537554068478285,0.7537554068478285,0.7537554068478285,0.7537554068478285,99.0,99.0,99.0,99.0,1,3
0,0.010783279768087302,0.010783279768087302,0.010783279768087302,0.010783279768087302,68.0,68.0,68.0,68.0,0.008491509935412384,0.008491509935412384,0.008491509935412384,0.008491509935412384,0.00011626069838109536,0.00011626069838109536,0.00011626069838109536,0.00011626069838109536,1.8030076861700217,1.8030076861700217,1.8030076861700217,1.8030076861700217,95.0,95.0,95.0,95.0,1,2
0,0.0161200452989591,0.0161200452989591,0.0161200452989591,0.0161200452989591,87.0,87.0,87.0,87.0,0.012580200916611307,0.012580200916611307,0.012580200916611307,0.012580200916611307,0.0002597481395802646,0.0002597481395802646,0.0002597481395802646,0.0002597481395802646,3.09881294775943,3.09881294775943,3.09881294775943,3.09881294775943,111.0,111.0,111.0,111.0,1,1
0,0.010589179671687727,0.010589179671687727,0.010589179671687727,0.010589179671687727,58.0,58.0,58.0,58.0,0.007972518567916474,0.007972518567916474,0.007972518567916474,0.007972518567916474,0.00011207386138188326,0.00011207386138188326,0.00011207386138188326,0.00011207386138188326,1.475226012085188,1.475226012085188,1.475226012085188,1.475226012085188,109.0,109.0,109.0,109.0,1,4
0,0.006924200773304232,0.006924200773304232,0.006924200773304232,0.006924200773304232,49.0,49.0,49.0,49.0,0.005675185525461332,0.005675185525461332,0.005675185525461332,0.005675185525461332,4.789525011080709e-05,4.789525011080709e-05,4.789525011080709e-05,4.789525011080709e-05,1.0047808913029042,1.0047808913029042,1.0047808913029042,1.0047808913029042,100.0,100.0,100.0,100.0,1,6
0,0.034994870317910536,0.034994870317910536,0.034994870317910536,0.034994870317910536,84.0,84.0,84.0,84.0,0.025297176076663676,0.025297176076663676,0.025297176076663676,0.025297176076663676,0.0012245871679284392,0.0012245871679284392,0.0012245871679284392,0.0012245871679284392,6.447415818044375,6.447415818044375,6.447415818044375,6.447415818044375,110.0,110.0,110.0,110.0,1,5
0,0.015889476130661776,0.015889476130661776,0.015889476130661776,0.015889476130661776,81.0,81.0,81.0,81.0,0.012556622141488116,0.012556622141488116,0.012556622141488116,0.012556622141488116,0.00025247107091234115,0.00025247107091234115,0.00025247107091234115,0.00025247107091234115,3.121151685041225,3.121151685041225,3.121151685041225,3.121151685041225,120.0,120.0,120.0,120.0,1,1
0,0.006473794591301692,0.006473794591301692,0.006473794591301692,0.006473794591301692,55.0,55.0,55.0,55.0,0.00510634611703676,0.00510634611703676,0.00510634611703676,0.00510634611703676,4.190178707624684e-05,4.190178707624684e-05,4.190178707624684e-05,4.190178707624684e-05,0.9256037476154276,0.9256037476154276,0.9256037476154276,0.9256037476154276,98.0,98.0,98.0,98.0,1,3
0,0.021915084818747554,0.021915084818747554,0.021915084818747554,0.021915084818747554,85.0,85.0,85.0,85.0,0.016761241775510364,0.016761241775510364,0.016761241775510364,0.016761241775510364,0.0004802472990575375,0.0004802472990575375,0.0004802472990575375,0.0004802472990575375,4.3735988117784,4.3735988117784,4.3735988117784,4.3735988117784,108.0,108.0,108.0,108.0,1,5
0,0.019557745638146818,0.019557745638146818,0.019557745638146818,0.019557745638146818,63.0,63.0,63.0,63.0,0.012996225753296717,0.012996225753296717,0.012996225753296717,0.012996225753296717,0.0003824666481154482,0.0003824666481154482,0.0003824666481154482,0.0003824666481154482,2.690587169658113,2.690587169658113,2.690587169658113,2.690587169658113,97.0,97.0,97.0,97.0,1,2
0,0.017862196002951847,0.017862196002951847,0.017862196002951847,0.017862196002951847,56.0,56.0,56.0,56.0,0.014296612144183705,0.014296612144183705,0.014296612144183705,0.014296612144183705,0.00031902858989670923,0.00031902858989670923,0.00031902858989670923,0.00031902858989670923,2.759388328333489,2.759388328333489,2.759388328333489,2.759388328333489,94.0,94.0,94.0,94.0,1,4
0,0.00898470330191489,0.00898470330191489,0.00898470330191489,0.00898470330191489,56.0,56.0,56.0,56.0,0.007226151187519461,0.007226151187519461,0.007226151187519461,0.007226151187519461,8.071996413799149e-05,8.071996413799149e-05,8.071996413799149e-05,8.071996413799149e-05,1.2640367700799007,1.2640367700799007,1.2640367700799007,1.2640367700799007,93.0,93.0,93.0,93.0,1,6
0,0.00723979288348973,0.00723979288348973,0.00723979288348973,0.00723979288348973,57.0,57.0,57.0,57.0,0.005668181162113413,0.005668181162113413,0.005668181162113413,0.005668181162113413,5.2413675242309856e-05,5.2413675242309856e-05,5.2413675242309856e-05,5.2413675242309856e-05,1.0284921815313588,1.0284921815313588,1.0284921815313588,1.0284921815313588,98.0,98.0,98.0,98.0,1,6
0,0.01184876722339568,0.01184876722339568,0.01184876722339568,0.01184876722339568,82.0,82.0,82.0,82.0,0.00942790686540526,0.00942790686540526,0.00942790686540526,0.00942790686540526,0.00014039300346474278,0.00014039300346474278,0.00014039300346474278,0.00014039300346474278,2.284787574494558,2.284787574494558,2.284787574494558,2.284787574494558,133.0,133.0,133.0,133.0,1,1
0,0.03813914738428896,0.03813914738428896,0.03813914738428896,0.03813914738428896,78.0,78.0,78.0,78.0,0.02748124390768883,0.02748124390768883,0.02748124390768883,0.02748124390768883,0.0014545889486490115,0.0014545889486490115,0.0014545889486490115,0.0014545889486490115,7.020385583087807,7.020385583087807,7.020385583087807,7.020385583087807,110.0,110.0,110.0,110.0,1,4
0,0.04220504552715831,0.04220504552715831,0.04220504552715831,0.04220504552715831,91.0,91.0,91.0,91.0,0.029857849254961207,0.029857849254961207,0.029857849254961207,0.029857849254961207,0.001781125860018507,0.001781125860018507,0.001781125860018507,0.001781125860018507,7.644687063384016,7.644687063384016,7.644687063384016,7.644687063384016,117.0,117.0,117.0,117.0,1,5
0,0.01610106168131184,0.01610106168131184,0.01610106168131184,0.01610106168131184,78.0,78.0,78.0,78.0,0.011994607351245346,0.011994607351245346,0.011994607351245346,0.011994607351245346,0.0002592410383198764,0.0002592410383198764,0.0002592410383198764,0.0002592410383198764,2.64333460926517,2.64333460926517,2.64333460926517,2.64333460926517,100.0,100.0,100.0,100.0,1,2
0,0.007985068092058277,0.007985068092058277,0.007985068092058277,0.007985068092058277,61.0,61.0,61.0,61.0,0.005224136484616929,0.005224136484616929,0.005224136484616929,0.005224136484616929,6.375727939527813e-05,6.375727939527813e-05,6.375727939527813e-05,6.375727939527813e-05,1.11044342969647,1.11044342969647,1.11044342969647,1.11044342969647,103.0,103.0,103.0,103.0,1,3
0,0.006598870548909144,0.006598870548909144,0.006598870548909144,0.006598870548909144,55.0,55.0,55.0,55.0,0.0053887227333092695,0.0053887227333092695,0.0053887227333092695,0.0053887227333092695,4.354467624899569e-05,4.354467624899569e-05,4.354467624899569e-05,4.354467624899569e-05,0.9511925157442893,0.9511925157442893,0.9511925157442893,0.9511925157442893,99.0,99.0,99.0,99.0,1,4
0,0.012922164964223899,0.012922164964223899,0.012922164964223899,0.012922164964223899,84.0,84.0,84.0,84.0,0.010267258481122397,0.010267258481122397,0.010267258481122397,0.010267258481122397,0.00016694132998755262,0.00016694132998755262,0.00016694132998755262,0.00016694132998755262,2.5490051642231712,2.5490051642231712,2.5490051642231712,2.5490051642231712,127.0,127.0,127.0,127.0,1,1
0,0.005313552387868592,0.005313552387868592,0.005313552387868592,0.005313552387868592,50.0,50.0,50.0,50.0,0.004339813847324446,0.004339813847324446,0.004339813847324446,0.004339813847324446,2.823342997430582e-05,2.823342997430582e-05,2.823342997430582e-05,2.823342997430582e-05,0.6834547316411974,0.6834547316411974,0.6834547316411974,0.6834547316411974,101.0,101.0,101.0,101.0,1,3
0,0.03753485214071075,0.03753485214071075,0.03753485214071075,0.03753485214071075,80.0,80.0,80.0,80.0,0.027121405150008313,0.027121405150008313,0.027121405150008313,0.027121405150008313,0.0014087927784735455,0.0014087927784735455,0.0014087927784735455,0.0014087927784735455,6.448114950082395,6.448114950082395,6.448114950082395,6.448114950082395,99.0,99.0,99.0,99.0,1,5
0,0.007712823354942983,0.007712823354942983,0.007712823354942983,0.007712823354942983,66.0,66.0,66.0,66.0,0.005964058288609362,0.005964058288609362,0.005964058288609362,0.005964058288609362,5.946807579807449e-05,5.946807579807449e-05,5.946807579807449e-05,5.946807579807449e-05,1.1892274458535765,1.1892274458535765,1.1892274458535765,1.1892274458535765,110.0,110.0,110.0,110.0,1,6
0,0.013925152556092685,0.013925152556092685,0.013925152556092685,0.013925152556092685,56.0,56.0,56.0,56.0,0.010376668215643538,0.010376668215643538,0.010376668215643538,0.010376668215643538,0.00019390986741525237,0.00019390986741525237,0.00019390986741525237,0.00019390986741525237,2.0358368270001903,2.0358368270001903,2.0358368270001903,2.0358368270001903,89.0,89.0,89.0,89.0,1,2
0,0.005071518296928219,0.005071518296928219,0.005071518296928219,0.005071518296928219,36.0,36.0,36.0,36.0,0.004175353042047259,0.004175353042047259,0.004175353042047259,0.004175353042047259,2.5696328180496866e-05,2.5696328180496866e-05,2.5696328180496866e-05,2.5696328180496866e-05,0.5889243101369456,0.5889243101369456,0.5889243101369456,0.5889243101369456,93.0,93.0,93.0,93.0,1,3
0,0.015623144469603263,0.015623144469603263,0.015623144469603263,0.015623144469603263,78.0,78.0,78.0,78.0,0.012290065592044024,0.012290065592044024,0.012290065592044024,0.012290065592044024,0.00024406397712011194,0.00024406397712011194,0.00024406397712011194,0.00024406397712011194,2.887520216141729,2.887520216141729,2.887520216141729,2.887520216141729,108.0,108.0,108.0,108.0,1,1
0,0.006881140284083189,0.006881140284083189,0.006881140284083189,0.006881140284083189,64.0,64.0,64.0,64.0,0.005541458945800326,0.005541458945800326,0.005541458945800326,0.005541458945800326,4.733218418290076e-05,4.733218418290076e-05,4.733218418290076e-05,4.733218418290076e-05,1.0585573884007329,1.0585573884007329,1.0585573884007329,1.0585573884007329,98.0,98.0,98.0,98.0,1,6
0,0.005732900464516308,0.005732900464516308,0.005732900464516308,0.005732900464516308,46.0,46.0,46.0,46.0,0.004512005204796895,0.004512005204796895,0.004512005204796895,0.004512005204796895,3.2858119488455e-05,3.2858119488455e-05,3.2858119488455e-05,3.2858119488455e-05,0.7454003226857857,0.7454003226857857,0.7454003226857857,0.7454003226857857,95.0,95.0,95.0,95.0,1,4
0,0.02817792214203839,0.02817792214203839,0.02817792214203839,0.02817792214203839,75.0,75.0,75.0,75.0,0.021994717879798283,0.021994717879798283,0.021994717879798283,0.021994717879798283,0.0007937973352913451,0.0007937973352913451,0.0007937973352913451,0.0007937973352913451,5.449340835942163,5.449340835942163,5.449340835942163,5.449340835942163,109.0,109.0,109.0,109.0,1,5
0,0.009687518155198816,0.009687518155198816,0.009687518155198816,0.009687518155198816,75.0,75.0,75.0,75.0,0.007289913943296002,0.007289913943296002,0.007289913943296002,0.007289913943296002,9.379324069545818e-05,9.379324069545818e-05,9.379324069545818e-05,9.379324069545818e-05,1.6943210887017104,1.6943210887017104,1.6943210887017104,1.6943210887017104,102.0,102.0,102.0,102.0,1,2
0,0.01113705570778242,0.01113705570778242,0.01113705570778242,0.01113705570778242,58.0,58.0,58.0,58.0,0.008808927141074917,0.008808927141074917,0.008808927141074917,0.008808927141074917,0.00012402159820205157,0.00012402159820205157,0.00012402159820205157,0.00012402159820205157,1.6392113775503567,1.6392113775503567,1.6392113775503567,1.6392113775503567,86.0,86.0,86.0,86.0,1,4
0,0.046593900461042885,0.046593900461042885,0.046593900461042885,0.046593900461042885,78.0,78.0,78.0,78.0,0.03514957856045529,0.03514957856045529,0.03514957856045529,0.03514957856045529,0.0021701031497433367,0.0021701031497433367,0.0021701031497433367,0.0021701031497433367,8.872639845447189,8.872639845447189,8.872639845447189,8.872639845447189,108.0,108.0,108.0,108.0,1,5
0,0.015921400310166374,0.015921400310166374,0.015921400310166374,0.015921400310166374,86.0,86.0,86.0,86.0,0.012830214806141377,0.012830214806141377,0.012830214806141377,0.012830214806141377,0.0002534541796265397,0.0002534541796265397,0.0002534541796265397,0.0002534541796265397,3.3134870337346483,3.3134870337346483,3.3134870337346483,3.3134870337346483,130.0,130.0,130.0,130.0,1,1
0,0.007701078590485194,0.007701078590485194,0.007701078590485194,0.007701078590485194,60.0,60.0,60.0,60.0,0.006048830351816369,0.006048830351816369,0.006048830351816369,0.006048830351816369,5.9262320168373356e-05,5.9262320168373356e-05,5.9262320168373356e-05,5.9262320168373356e-05,1.1053665114303715,1.1053665114303715,1.1053665114303715,1.1053665114303715,111.0,111.0,111.0,111.0,1,6
0,0.017864110798866174,0.017864110798866174,0.017864110798866174,0.017864110798866174,73.0,73.0,73.0,73.0,0.013609709066890747,0.013609709066890747,0.013609709066890747,0.013609709066890747,0.00031908892492916703,0.00031908892492916703,0.00031908892492916703,0.00031908892492916703,3.038793091116263,3.038793091116263,3.038793091116263,3.038793091116263,104.0,104.0,104.0,104.0,1,2
0,0.005235060369384021,0.005235060369384021,0.005235060369384021,0.005235060369384021,52.0,52.0,52.0,52.0,0.004285724940361439,0.004285724940361439,0.004285724940361439,0.004285724940361439,2.7367840368252187e-05,2.7367840368252187e-05,2.7367840368252187e-05,2.7367840368252187e-05,0.6597022113068358,0.6597022113068358,0.6597022113068358,0.6597022113068358,106.0,106.0,106.0,106.0,1,3
0,0.02926958864969921,0.02926958864969921,0.02926958864969921,0.02926958864969921,80.0,80.0,80.0,80.0,0.02333900683571555,0.02333900683571555,0.02333900683571555,0.02333900683571555,0.0008566992647406943,0.0008566992647406943,0.0008566992647406943,0.0008566992647406943,5.745762063270257,5.745762063270257,5.745762063270257,5.745762063270257,107.0,107.0,107.0,107.0,1,5
0,0.016854190177927976,0.016854190177927976,0.016854190177927976,0.016854190177927976,85.0,85.0,85.0,85.0,0.012505871381014127,0.012505871381014127,0.012505871381014127,0.012505871381014127,0.00028406132286015067,0.00028406132286015067,0.00028406132286015067,0.00028406132286015067,3.125380967145359,3.125380967145359,3.125380967145359,3.125380967145359,116.0,116.0,116.0,116.0,1,1
0,0.009689042565876563,0.009689042565876563,0.009689042565876563,0.009689042565876563,63.0,63.0,63.0,63.0,0.007570892736433592,0.007570892736433592,0.007570892736433592,0.007570892736433592,9.386904192991876e-05,9.386904192991876e-05,9.386904192991876e-05,9.386904192991876e-05,1.5862307876961923,1.5862307876961923,1.5862307876961923,1.5862307876961923,116.0,116.0,116.0,116.0,1,6
0,0.012267496913152208,0.012267496913152208,0.012267496913152208,0.012267496913152208,83.0,83.0,83.0,83.0,0.00947981069065799,0.00947981069065799,0.00947981069065799,0.00947981069065799,0.0001504402893535062,0.0001504402893535062,0.0001504402893535062,0.0001504402893535062,2.150650273501028,2.150650273501028,2.150650273501028,2.150650273501028,104.0,104.0,104.0,104.0,1,2
0,0.007394403546052038,0.007394403546052038,0.007394403546052038,0.007394403546052038,55.0,55.0,55.0,55.0,0.005725410072602915,0.005725410072602915,0.005725410072602915,0.005725410072602915,5.467088523052525e-05,5.467088523052525e-05,5.467088523052525e-05,5.467088523052525e-05,1.0645096771419393,1.0645096771419393,1.0645096771419393,1.0645096771419393,97.0,97.0,97.0,97.0,1,4
0,0.0060002723449528814,0.0060002723449528814,0.0060002723449528814,0.0060002723449528814,54.0,54.0,54.0,54.0,0.004866954884721065,0.004866954884721065,0.004866954884721065,0.004866954884721065,3.595851134403737e-05,3.595851134403737e-05,3.595851134403737e-05,3.595851134403737e-05,0.7481273338534211,0.7481273338534211,0.7481273338534211,0.7481273338534211,100.0,100.0,100.0,100.0,1,3
0,0.01587120213755882,0.01587120213755882,0.01587120213755882,0.01587120213755882,72.0,72.0,72.0,72.0,0.012361524672804484,0.012361524672804484,0.012361524672804484,0.012361524672804484,0.000251840866024737,0.000251840866024737,0.000251840866024737,0.000251840866024737,2.9940259489929137,2.9940259489929137,2.9940259489929137,2.9940259489929137,125.0,125.0,125.0,125.0,1,1
0,0.01287300664916772,0.01287300664916772,0.01287300664916772,0.01287300664916772,71.0,71.0,71.0,71.0,0.009767806320778236,0.009767806320778236,0.009767806320778236,0.009767806320778236,0.0001657142372568482,0.0001657142372568482,0.0001657142372568482,0.0001657142372568482,1.9234928373774856,1.9234928373774856,1.9234928373774856,1.9234928373774856,107.0,107.0,107.0,107.0,1,2
0,0.005001984745551305,0.005001984745551305,0.005001984745551305,0.005001984745551305,54.0,54.0,54.0,54.0,0.00392236889832506,0.00392236889832506,0.00392236889832506,0.00392236889832506,2.4943428640326112e-05,2.4943428640326112e-05,2.4943428640326112e-05,2.4943428640326112e-05,0.6489753365493939,0.6489753365493939,0.6489753365493939,0.6489753365493939,107.0,107.0,107.0,107.0,1,3
0,0.027435464567325638,0.027435464567325638,0.027435464567325638,0.027435464567325638,88.0,88.0,88.0,88.0,0.021103346811110965,0.021103346811110965,0.021103346811110965,0.021103346811110965,0.0007526897134947144,0.0007526897134947144,0.0007526897134947144,0.0007526897134947144,5.498016651851474,5.498016651851474,5.498016651851474,5.498016651851474,111.0,111.0,111.0,111.0,1,5
0,0.009458989768385844,0.009458989768385844,0.009458989768385844,0.009458989768385844,59.0,59.0,59.0,59.0,0.00743100407023825,0.00743100407023825,0.00743100407023825,0.00743100407023825,8.947224748862028e-05,8.947224748862028e-05,8.947224748862028e-05,8.947224748862028e-05,1.3778094598823116,1.3778094598823116,1.3778094598823116,1.3778094598823116,87.0,87.0,87.0,87.0,1,4
0,0.007445572522997391,0.007445572522997391,0.007445572522997391,0.007445572522997391,65.0,65.0,65.0,65.0,0.005922668869378811,0.005922668869378811,0.005922668869378811,0.005922668869378811,5.543524728567513e-05,5.543524728567513e-05,5.543524728567513e-05,5.543524728567513e-05,1.1007563393056663,1.1007563393056663,1.1007563393056663,1.1007563393056663,106.0,106.0,106.0,106.0,1,6
0,0.05635737998002561,0.05635737998002561,0.05635737998002561,0.05635737998002561,87.0,87.0,87.0,87.0,0.04501912465073768,0.04501912465073768,0.04501912465073768,0.04501912465073768,0.0031760710384284023,0.0031760710384284023,0.0031760710384284023,0.0031760710384284023,11.433733209252395,11.433733209252395,11.433733209252395,11.433733209252395,113.0,113.0,113.0,113.0,1,5
0,0.011613178045859308,0.011613178045859308,0.011613178045859308,0.011613178045859308,62.0,62.0,62.0,62.0,0.00878693967843334,0.00878693967843334,0.00878693967843334,0.00878693967843334,0.00013482472991318856,0.00013482472991318856,0.00013482472991318856,0.00013482472991318856,1.8588660682345919,1.8588660682345919,1.8588660682345919,1.8588660682345919,90.0,90.0,90.0,90.0,1,2
0,0.004925945669714549,0.004925945669714549,0.004925945669714549,0.004925945669714549,65.0,65.0,65.0,65.0,0.0040080848574019865,0.0040080848574019865,0.0040080848574019865,0.0040080848574019865,2.4246375957879264e-05,2.4246375957879264e-05,2.4246375957879264e-05,2.4246375957879264e-05,0.6807082681371884,0.6807082681371884,0.6807082681371884,0.6807082681371884,107.0,107.0,107.0,107.0,1,3
0,0.007988219710100102,0.007988219710100102,0.007988219710100102,0.007988219710100102,69.0,69.0,69.0,69.0,0.0063663427108435686,0.0063663427108435686,0.0063663427108435686,0.0063663427108435686,6.381010016161865e-05,6.381010016161865e-05,6.381010016161865e-05,6.381010016161865e-05,1.2832227279935031,1.2832227279935031,1.2832227279935031,1.2832227279935031,104.0,104.0,104.0,104.0,1,6
0,0.007977350361617588,0.007977350361617588,0.007977350361617588,0.007977350361617588,60.0,60.0,60.0,60.0,0.006116161930925809,0.006116161930925809,0.006116161930925809,0.006116161930925809,6.36365884520882e-05,6.36365884520882e-05,6.36365884520882e-05,6.36365884520882e-05,1.2179353088280522,1.2179353088280522,1.2179353088280522,1.2179353088280522,91.0,91.0,91.0,91.0,1,4
0,0.015585216257342747,0.015585216257342747,0.015585216257342747,0.015585216257342747,89.0,89.0,89.0,89.0,0.01204282522385665,0.01204282522385665,0.01204282522385665,0.01204282522385665,0.00024288146115369517,0.00024288146115369517,0.00024288146115369517,0.00024288146115369517,3.098703853028854,3.098703853028854,3.098703853028854,3.098703853028854,122.0,122.0,122.0,122.0,1,1
0,0.006670022454927013,0.006670022454927013,0.006670022454927013,0.006670022454927013,52.0,52.0,52.0,52.0,0.005168153847559745,0.005168153847559745,0.005168153847559745,0.005168153847559745,4.4419159177473654e-05,4.4419159177473654e-05,4.4419159177473654e-05,4.4419159177473654e-05,0.840145588037545,0.840145588037545,0.840145588037545,0.840145588037545,92.0,92.0,92.0,92.0,1,4
0,0.010107451404146444,0.010107451404146444,0.010107451404146444,0.010107451404146444,75.0,75.0,75.0,75.0,0.007409807666822825,0.007409807666822825,0.007409807666822825,0.007409807666822825,0.00010215265715750373,0.00010215265715750373,0.00010215265715750373,0.00010215265715750373,1.760626306048656,1.760626306048656,1.760626306048656,1.760626306048656,112.0,112.0,112.0,112.0,1,2
0,0.00761453353535929,0.00761453353535929,0.00761453353535929,0.00761453353535929,59.0,59.0,59.0,59.0,0.0058277924142128065,0.0058277924142128065,0.0058277924142128065,0.0058277924142128065,5.797587661346377e-05,5.797587661346377e-05,5.797587661346377e-05,5.797587661346377e-05,1.0915260448073556,1.0915260448073556,1.0915260448073556,1.0915260448073556,99.0,99.0,99.0,99.0,1,6
0,0.006936538103305029,0.006936538103305029,0.006936538103305029,0.006936538103305029,60.0,60.0,60.0,60.0,0.0055708999046677875,0.0055708999046677875,0.0055708999046677875,0.0055708999046677875,4.810974886437194e-05,4.810974886437194e-05,4.810974886437194e-05,4.810974886437194e-05,1.116076576472341,1.116076576472341,1.116076576472341,1.116076576472341,97.0,97.0,97.0,97.0,1,3
0,0.014630810562345532,0.014630810562345532,0.014630810562345532,0.014630810562345532,82.0,82.0,82.0,82.0,0.011274704030711624,0.011274704030711624,0.011274704030711624,0.011274704030711624,0.00021404191359043463,0.00021404191359043463,0.00021404191359043463,0.00021404191359043463,2.703571495230585,2.703571495230585,2.703571495230585,2.703571495230585,118.0,118.0,118.0,118.0,1,1
0,0.0551568268721315,0.0551568268721315,0.0551568268721315,0.0551568268721315,97.0,97.0,97.0,97.0,0.041230134906718924,0.041230134906718924,0.041230134906718924,0.041230134906718924,0.003042178533981613,0.003042178533981613,0.003042178533981613,0.003042178533981613,11.185462505489813,11.185462505489813,11.185462505489813,11.185462505489813,117.0,117.0,117.0,117.0,1,5
0,0.0054859963084770685,0.0054859963084770685,0.0054859963084770685,0.0054859963084770685,55.0,55.0,55.0,55.0,0.004521059798153964,0.004521059798153964,0.004521059798153964,0.004521059798153964,3.0065480499257557e-05,3.0065480499257557e-05,3.0065480499257557e-05,3.0065480499257557e-05,0.8263468597023309,0.8263468597023309,0.8263468597023309,0.8263468597023309,102.0,102.0,102.0,102.0,1,3
0,0.018851500759362656,0.018851500759362656,0.018851500759362656,0.018851500759362656,74.0,74.0,74.0,74.0,0.013350617812615009,0.013350617812615009,0.013350617812615009,0.013350617812615009,0.0003553640442128798,0.0003553640442128798,0.0003553640442128798,0.0003553640442128798,2.9484516064112762,2.9484516064112762,2.9484516064112762,2.9484516064112762,95.0,95.0,95.0,95.0,1,2
0,0.007499471901801574,0.007499471901801574,0.007499471901801574,0.007499471901801574,72.0,72.0,72.0,72.0,0.005946729898051747,0.005946729898051747,0.005946729898051747,0.005946729898051747,5.623080720893422e-05,5.623080720893422e-05,5.623080720893422e-05,5.623080720893422e-05,1.2529922647406493,1.2529922647406493,1.2529922647406493,1.2529922647406493,114.0,114.0,114.0,114.0,1,6
0,0.007541390994882447,0.007541390994882447,0.007541390994882447,0.007541390994882447,70.0,70.0,70.0,70.0,0.006023014456705603,0.006023014456705603,0.006023014456705603,0.006023014456705603,5.6839229326065207e-05,5.6839229326065207e-05,5.6839229326065207e-05,5.6839229326065207e-05,1.1771279784595778,1.1771279784595778,1.1771279784595778,1.1771279784595778,106.0,106.0,106.0,106.0,1,4
0,0.016391011235365384,0.016391011235365384,0.016391011235365384,0.016391011235365384,77.0,77.0,77.0,77.0,0.011926128185265523,0.011926128185265523,0.011926128185265523,0.011926128185265523,0.00026861907204605835,0.00026861907204605835,0.00026861907204605835,0.00026861907204605835,2.773841533624446,2.773841533624446,2.773841533624446,2.773841533624446,103.0,103.0,103.0,103.0,1,1
0,0.06536405392795705,0.06536405392795705,0.06536405392795705,0.06536405392795705,92.0,92.0,92.0,92.0,0.049721990715227066,0.049721990715227066,0.049721990715227066,0.049721990715227066,0.004272273080307947,0.004272273080307947,0.004272273080307947,0.004272273080307947,12.607950886122893,12.607950886122893,12.607950886122893,12.607950886122893,110.0,110.0,110.0,110.0,1,5
0,0.05651371071110102,0.05651371071110102,0.05651371071110102,0.05651371071110102,80.0,80.0,80.0,80.0,0.043709147699512486,0.043709147699512486,0.043709147699512486,0.043709147699512486,0.0031935434406850775,0.0031935434406850775,0.0031935434406850775,0.0031935434406850775,10.081869469454178,10.081869469454178,10.081869469454178,10.081869469454178,108.0,108.0,108.0,108.0,1,5
0,0.0156394633756767,0.0156394633756767,0.0156394633756767,0.0156394633756767,102.0,102.0,102.0,102.0,0.012284151531009604,0.012284151531009604,0.012284151531009604,0.012284151531009604,0.0002445926334982506,0.0002445926334982506,0.0002445926334982506,0.0002445926334982506,3.268855465390259,3.268855465390259,3.268855465390259,3.268855465390259,129.0,129.0,129.0,129.0,1,1
0,0.0120224900327681,0.0120224900327681,0.0120224900327681,0.0120224900327681,65.0,65.0,65.0,65.0,0.009361398766659977,0.009361398766659977,0.009361398766659977,0.009361398766659977,0.00014451036896175748,0.00014451036896175748,0.00014451036896175748,0.00014451036896175748,2.011731429962812,2.011731429962812,2.011731429962812,2.011731429962812,114.0,114.0,114.0,114.0,1,6
0,0.008183122743973799,0.008183122743973799,0.008183122743973799,0.008183122743973799,66.0,66.0,66.0,66.0,0.006009900648605824,0.006009900648605824,0.006009900648605824,0.006009900648605824,6.688976580979572e-05,6.688976580979572e-05,6.688976580979572e-05,6.688976580979572e-05,1.229486163212313,1.229486163212313,1.229486163212313,1.229486163212313,101.0,101.0,101.0,101.0,1,3
0,0.016291851912692695,0.016291851912692695,0.016291851912692695,0.016291851912692695,68.0,68.0,68.0,68.0,0.012224794997151137,0.012224794997151137,0.012224794997151137,0.012224794997151137,0.0002654173798879625,0.0002654173798879625,0.0002654173798879625,0.0002654173798879625,2.540442269570714,2.540442269570714,2.540442269570714,2.540442269570714,95.0,95.0,95.0,95.0,1,2
0,0.007666947364072581,0.007666947364072581,0.007666947364072581,0.007666947364072581,64.0,64.0,64.0,64.0,0.006105369778832662,0.006105369778832662,0.006105369778832662,0.006105369778832662,5.8754962986444086e-05,5.8754962986444086e-05,5.8754962986444086e-05,5.8754962986444086e-05,1.1675992150641334,1.1675992150641334,1.1675992150641334,1.1675992150641334,97.0,97.0,97.0,97.0,1,4
0,0.03819221226527144,0.03819221226527144,0.03819221226527144,0.03819221226527144,83.0,83.0,83.0,83.0,0.029103694159227617,0.029103694159227617,0.029103694159227617,0.029103694159227617,0.0014586053384863307,0.0014586053384863307,0.0014586053384863307,0.0014586053384863307,7.025232156336735,7.025232156336735,7.025232156336735,7.025232156336735,106.0,106.0,106.0,106.0,1,5
0,0.006842631407023029,0.006842631407023029,0.006842631407023029,0.006842631407023029,60.0,60.0,60.0,60.0,0.005268277029329079,0.005268277029329079,0.005268277029329079,0.005268277029329079,4.681641828932416e-05,4.681641828932416e-05,4.681641828932416e-05,4.681641828932416e-05,1.040077624644232,1.040077624644232,1.040077624644232,1.040077624644232,99.0,99.0,99.0,99.0,1,6
0,0.019718898787294076,0.019718898787294076,0.019718898787294076,0.019718898787294076,96.0,96.0,96.0,96.0,0.015038369683186014,0.015038369683186014,0.015038369683186014,0.015038369683186014,0.00038878040120245963,0.00038878040120245963,0.00038878040120245963,0.00038878040120245963,4.057938591639433,4.057938591639433,4.057938591639433,4.057938591639433,121.0,121.0,121.0,121.0,1,1
0,0.01783731749956698,0.01783731749956698,0.01783731749956698,0.01783731749956698,72.0,72.0,72.0,72.0,0.01391967294364687,0.01391967294364687,0.01391967294364687,0.01391967294364687,0.0003181668638328224,0.0003181668638328224,0.0003181668638328224,0.0003181668638328224,3.143487568703988,3.143487568703988,3.143487568703988,3.143487568703988,96.0,96.0,96.0,96.0,1,2
0,0.00691492740606576,0.00691492740606576,0.00691492740606576,0.00691492740606576,62.0,62.0,62.0,62.0,0.005389397242651694,0.005389397242651694,0.005389397242651694,0.005389397242651694,4.781620313451113e-05,4.781620313451113e-05,4.781620313451113e-05,4.781620313451113e-05,1.1036133000469326,1.1036133000469326,1.1036133000469326,1.1036133000469326,102.0,102.0,102.0,102.0,1,4
0,0.0051351861627121865,0.0051351861627121865,0.0051351861627121865,0.0051351861627121865,54.0,54.0,54.0,54.0,0.003990233531585919,0.003990233531585919,0.003990233531585919,0.003990233531585919,2.635552987785771e-05,2.635552987785771e-05,2.635552987785771e-05,2.635552987785771e-05,0.7133586832337464,0.7133586832337464,0.7133586832337464,0.7133586832337464,104.0,104.0,104.0,104.0,1,3
0,0.09098941070765497,0.09098941070765497,0.09098941070765497,0.09098941070765497,76.0,76.0,76.0,76.0,0.06430207115516584,0.06430207115516584,0.06430207115516584,0.06430207115516584,0.008278089988965648,0.008278089988965648,0.008278089988965648,0.008278089988965648,15.212894634323508,15.212894634323508,15.212894634323508,15.212894634323508,97.0,97.0,97.0,97.0,1,5
0,0.014894476749600608,0.014894476749600608,0.014894476749600608,0.014894476749600608,67.0,67.0,67.0,67.0,0.012161189726861008,0.012161189726861008,0.012161189726861008,0.012161189726861008,0.0002217287572280726,0.0002217287572280726,0.0002217287572280726,0.0002217287572280726,2.5652412083143012,2.5652412083143012,2.5652412083143012,2.5652412083143012,113.0,113.0,113.0,113.0,1,1
0,0.00969061249774772,0.00969061249774772,0.00969061249774772,0.00969061249774772,69.0,69.0,69.0,69.0,0.007585124736938994,0.007585124736938994,0.007585124736938994,0.007585124736938994,9.390136193931673e-05,9.390136193931673e-05,9.390136193931673e-05,9.390136193931673e-05,1.4685874400641195,1.4685874400641195,1.4685874400641195,1.4685874400641195,98.0,98.0,98.0,98.0,1,6
0,0.024165707573729236,0.024165707573729236,0.024165707573729236,0.024165707573729236,64.0,64.0,64.0,64.0,0.0171170572934376,0.0171170572934376,0.0171170572934376,0.0171170572934376,0.0005839698662496826,0.0005839698662496826,0.0005839698662496826,0.0005839698662496826,3.39398686334657,3.39398686334657,3.39398686334657,3.39398686334657,87.0,87.0,87.0,87.0,1,2
0,0.012980374767282398,0.012980374767282398,0.012980374767282398,0.012980374767282398,58.0,58.0,58.0,58.0,0.010119544486690191,0.010119544486690191,0.010119544486690191,0.010119544486690191,0.0001681573124666485,0.0001681573124666485,0.0001681573124666485,0.0001681573124666485,1.8712385453049385,1.8712385453049385,1.8712385453049385,1.8712385453049385,94.0,94.0,94.0,94.0,1,4
0,0.009264694605253553,0.009264694605253553,0.009264694605253553,0.009264694605253553,49.0,49.0,49.0,49.0,0.007117033452598127,0.007117033452598127,0.007117033452598127,0.007117033452598127,8.578957481331952e-05,8.578957481331952e-05,8.578957481331952e-05,8.578957481331952e-05,1.1272777098118976,1.1272777098118976,1.1272777098118976,1.1272777098118976,90.0,90.0,90.0,90.0,1,3
0,0.01347955813917261,0.01347955813917261,0.01347955813917261,0.01347955813917261,61.0,61.0,61.0,61.0,0.010688984368199157,0.010688984368199157,0.010688984368199157,0.010688984368199157,0.00018157536916693675,0.00018157536916693675,0.00018157536916693675,0.00018157536916693675,1.9720335979865955,1.9720335979865955,1.9720335979865955,1.9720335979865955,101.0,101.0,101.0,101.0,1,4
0,0.010314151631703782,0.010314151631703782,0.010314151631703782,0.010314151631703782,61.0,61.0,61.0,61.0,0.007918800071886542,0.007918800071886542,0.007918800071886542,0.007918800071886542,0.0001063074733467749,0.0001063074733467749,0.0001063074733467749,0.0001063074733467749,1.490752645268175,1.490752645268175,1.490752645268175,1.490752645268175,100.0,100.0,100.0,100.0,1,6
0,0.024761715806865883,0.024761715806865883,0.024761715806865883,0.024761715806865883,61.0,61.0,61.0,61.0,0.01911892518726031,0.01911892518726031,0.01911892518726031,0.01911892518726031,0.0006130892001337593,0.0006130892001337593,0.0006130892001337593,0.0006130892001337593,3.6056934797856983,3.6056934797856983,3.6056934797856983,3.6056934797856983,94.0,94.0,94.0,94.0,1,2
0,0.06450312771510801,0.06450312771510801,0.06450312771510801,0.06450312771510801,75.0,75.0,75.0,75.0,0.049545530434790735,0.049545530434790735,0.049545530434790735,0.049545530434790735,0.004159833679310065,0.004159833679310065,0.004159833679310065,0.004159833679310065,11.535727397305685,11.535727397305685,11.535727397305685,11.535727397305685,97.0,97.0,97.0,97.0,1,5
0,0.007350610187446053,0.007350610187446053,0.007350610187446053,0.007350610187446053,53.0,53.0,53.0,53.0,0.00576304514676875,0.00576304514676875,0.00576304514676875,0.00576304514676875,5.400739479259948e-05,5.400739479259948e-05,5.400739479259948e-05,5.400739479259948e-05,1.0334716806494508,1.0334716806494508,1.0334716806494508,1.0334716806494508,93.0,93.0,93.0,93.0,1,3
0,0.011977975616503884,0.011977975616503884,0.011977975616503884,0.011977975616503884,75.0,75.0,75.0,75.0,0.009261197436026691,0.009261197436026691,0.009261197436026691,0.009261197436026691,0.00014337740146084534,0.00014337740146084534,0.00014337740146084534,0.00014337740146084534,2.071995762613875,2.071995762613875,2.071995762613875,2.071995762613875,106.0,106.0,106.0,106.0,1,1
0,0.010776960066134333,0.010776960066134333,0.010776960066134333,0.010776960066134333,56.0,56.0,56.0,56.0,0.008518081490380205,0.008518081490380205,0.008518081490380205,0.008518081490380205,0.00011604954787125001,0.00011604954787125001,0.00011604954787125001,0.00011604954787125001,1.5766291306743634,1.5766291306743634,1.5766291306743634,1.5766291306743634,92.0,92.0,92.0,92.0,1,6
0,0.009676653970539595,0.009676653970539595,0.009676653970539595,0.009676653970539595,54.0,54.0,54.0,54.0,0.0070587619824770765,0.0070587619824770765,0.0070587619824770765,0.0070587619824770765,9.363385770299271e-05,9.363385770299271e-05,9.363385770299271e-05,9.363385770299271e-05,1.2489489814492805,1.2489489814492805,1.2489489814492805,1.2489489814492805,94.0,94.0,94.0,94.0,1,3
0,0.015587349762694927,0.015587349762694927,0.015587349762694927,0.015587349762694927,78.0,78.0,78.0,78.0,0.011730878587913466,0.011730878587913466,0.011730878587913466,0.011730878587913466,0.00024296519865254197,0.00024296519865254197,0.00024296519865254197,0.00024296519865254197,2.652925423980541,2.652925423980541,2.652925423980541,2.652925423980541,115.0,115.0,115.0,115.0,1,1
0,0.08087936784454054,0.08087936784454054,0.08087936784454054,0.08087936784454054,80.0,80.0,80.0,80.0,0.06075640083571812,0.06075640083571812,0.06075640083571812,0.06075640083571812,0.0065414463481860245,0.0065414463481860245,0.0065414463481860245,0.0065414463481860245,15.228808527208129,15.228808527208129,15.228808527208129,15.228808527208129,106.0,106.0,106.0,106.0,1,5
0,0.012894940225245014,0.012894940225245014,0.012894940225245014,0.012894940225245014,62.0,62.0,62.0,62.0,0.009970653655501979,0.009970653655501979,0.009970653655501979,0.009970653655501979,0.00016627675741848644,0.00016627675741848644,0.00016627675741848644,0.00016627675741848644,1.8414039189487077,1.8414039189487077,1.8414039189487077,1.8414039189487077,90.0,90.0,90.0,90.0,1,4
0,0.0210175686917217,0.0210175686917217,0.0210175686917217,0.0210175686917217,65.0,65.0,65.0,65.0,0.01544498565794426,0.01544498565794426,0.01544498565794426,0.01544498565794426,0.00044168662282565753,0.00044168662282565753,0.00044168662282565753,0.00044168662282565753,3.0747566106010353,3.0747566106010353,3.0747566106010353,3.0747566106010353,96.0,96.0,96.0,96.0,1,2
0,0.015698767682496437,0.015698767682496437,0.015698767682496437,0.015698767682496437,68.0,68.0,68.0,68.0,0.012368546284841605,0.012368546284841605,0.012368546284841605,0.012368546284841605,0.00024644623979795985,0.00024644623979795985,0.00024644623979795985,0.00024644623979795985,2.6041919988484374,2.6041919988484374,2.6041919988484374,2.6041919988484374,103.0,103.0,103.0,103.0,1,1
0,0.020133352531286553,0.020133352531286553,0.020133352531286553,0.020133352531286553,63.0,63.0,63.0,63.0,0.014983342139003262,0.014983342139003262,0.014983342139003262,0.014983342139003262,0.0004053137751618823,0.0004053137751618823,0.0004053137751618823,0.0004053137751618823,2.8981721749938396,2.8981721749938396,2.8981721749938396,2.8981721749938396,93.0,93.0,93.0,93.0,1,4
0,0.0756341274229865,0.0756341274229865,0.0756341274229865,0.0756341274229865,84.0,84.0,84.0,84.0,0.06024417425936697,0.06024417425936697,0.06024417425936697,0.06024417425936697,0.0057204956053632005,0.0057204956053632005,0.0057204956053632005,0.0057204956053632005,14.513657481128284,14.513657481128284,14.513657481128284,14.513657481128284,106.0,106.0,106.0,106.0,1,5
0,0.0091442453596385,0.0091442453596385,0.0091442453596385,0.0091442453596385,58.0,58.0,58.0,58.0,0.006763170516426283,0.006763170516426283,0.006763170516426283,0.006763170516426283,8.35666953898155e-05,8.35666953898155e-05,8.35666953898155e-05,8.35666953898155e-05,1.205804563735874,1.205804563735874,1.205804563735874,1.205804563735874,98.0,98.0,98.0,98.0,1,3
0,0.02102214068138556,0.02102214068138556,0.02102214068138556,0.02102214068138556,68.0,68.0,68.0,68.0,0.016197192378659922,0.016197192378659922,0.016197192378659922,0.016197192378659922,0.0004419227123357998,0.0004419227123357998,0.0004419227123357998,0.0004419227123357998,3.227842961354807,3.227842961354807,3.227842961354807,3.227842961354807,90.0,90.0,90.0,90.0,1,2
0,0.011802052798279306,0.011802052798279306,0.011802052798279306,0.011802052798279306,58.0,58.0,58.0,58.0,0.009445915894441367,0.009445915894441367,0.009445915894441367,0.009445915894441367,0.0001392292636120009,0.0001392292636120009,0.0001392292636120009,0.0001392292636120009,1.6967171336772031,1.6967171336772031,1.6967171336772031,1.6967171336772031,90.0,90.0,90.0,90.0,1,6
0,0.02477395625222084,0.02477395625222084,0.02477395625222084,0.02477395625222084,72.0,72.0,72.0,72.0,0.017915352578420696,0.017915352578420696,0.017915352578420696,0.017915352578420696,0.0006137423828677067,0.0006137423828677067,0.0006137423828677067,0.0006137423828677067,3.713929219484288,3.713929219484288,3.713929219484288,3.713929219484288,87.0,87.0,87.0,87.0,1,2
0,0.011787812019283674,0.011787812019283674,0.011787812019283674,0.011787812019283674,64.0,64.0,64.0,64.0,0.009197034704158513,0.009197034704158513,0.009197034704158513,0.009197034704158513,0.00013894005060489952,0.00013894005060489952,0.00013894005060489952,0.00013894005060489952,1.7455354617867622,1.7455354617867622,1.7455354617867622,1.7455354617867622,98.0,98.0,98.0,98.0,1,4
0,0.013503433795131633,0.013503433795131633,0.013503433795131633,0.013503433795131633,76.0,76.0,76.0,76.0,0.009706389915044626,0.009706389915044626,0.009706389915044626,0.009706389915044626,0.0001823356922893115,0.0001823356922893115,0.0001823356922893115,0.0001823356922893115,2.088747702906923,2.088747702906923,2.088747702906923,2.088747702906923,109.0,109.0,109.0,109.0,1,1
0,0.06896371072985097,0.06896371072985097,0.06896371072985097,0.06896371072985097,68.0,68.0,68.0,68.0,0.05371271243066875,0.05371271243066875,0.05371271243066875,0.05371271243066875,0.0047559755727140844,0.0047559755727140844,0.0047559755727140844,0.0047559755727140844,12.404122242264865,12.404122242264865,12.404122242264865,12.404122242264865,92.0,92.0,92.0,92.0,1,5
0,0.009269872437763374,0.009269872437763374,0.009269872437763374,0.009269872437763374,58.0,58.0,58.0,58.0,0.0068290232191786935,0.0068290232191786935,0.0068290232191786935,0.0068290232191786935,8.593044056130177e-05,8.593044056130177e-05,8.593044056130177e-05,8.593044056130177e-05,1.189854501136082,1.189854501136082,1.189854501136082,1.189854501136082,96.0,96.0,96.0,96.0,1,3
0,0.014851877148120057,0.014851877148120057,0.014851877148120057,0.014851877148120057,60.0,60.0,60.0,60.0,0.011201169827719161,0.011201169827719161,0.011201169827719161,0.011201169827719161,0.0002205754709359548,0.0002205754709359548,0.0002205754709359548,0.0002205754709359548,2.1150609664558164,2.1150609664558164,2.1150609664558164,2.1150609664558164,93.0,93.0,93.0,93.0,1,6
0,0.06437301470506003,0.06437301470506003,0.06437301470506003,0.06437301470506003,77.0,77.0,77.0,77.0,0.04606241460004707,0.04606241460004707,0.04606241460004707,0.04606241460004707,0.004140794814405763,0.004140794814405763,0.004140794814405763,0.004140794814405763,10.760240579175358,10.760240579175358,10.760240579175358,10.760240579175358,101.0,101.0,101.0,101.0,1,4
0,0.018929304011340117,0.018929304011340117,0.018929304011340117,0.018929304011340117,62.0,62.0,62.0,62.0,0.014203030887301982,0.014203030887301982,0.014203030887301982,0.014203030887301982,0.00035831138969251187,0.00035831138969251187,0.00035831138969251187,0.00035831138969251187,2.7389815932721406,2.7389815932721406,2.7389815932721406,2.7389815932721406,92.0,92.0,92.0,92.0,1,6
0,0.015362509449572214,0.015362509449572214,0.015362509449572214,0.015362509449572214,60.0,60.0,60.0,60.0,0.011540751904185282,0.011540751904185282,0.011540751904185282,0.011540751904185282,0.0002359781047151583,0.0002359781047151583,0.0002359781047151583,0.0002359781047151583,2.1385794677803185,2.1385794677803185,2.1385794677803185,2.1385794677803185,85.0,85.0,85.0,85.0,1,3
0,0.0640094721747766,0.0640094721747766,0.0640094721747766,0.0640094721747766,71.0,71.0,71.0,71.0,0.04680360188452852,0.04680360188452852,0.04680360188452852,0.04680360188452852,0.004095646195920611,0.004095646195920611,0.004095646195920611,0.004095646195920611,10.413597778240636,10.413597778240636,10.413597778240636,10.413597778240636,88.0,88.0,88.0,88.0,1,5
0,0.01940923616598945,0.01940923616598945,0.01940923616598945,0.01940923616598945,73.0,73.0,73.0,73.0,0.015360939975091697,0.015360939975091697,0.015360939975091697,0.015360939975091697,0.0003767182993817715,0.0003767182993817715,0.0003767182993817715,0.0003767182993817715,3.355953865259498,3.355953865259498,3.355953865259498,3.355953865259498,92.0,92.0,92.0,92.0,1,2
0,0.014916038088489503,0.014916038088489503,0.014916038088489503,0.014916038088489503,61.0,61.0,61.0,61.0,0.01121885575590611,0.01121885575590611,0.01121885575590611,0.01121885575590611,0.00022248151207847377,0.00022248151207847377,0.00022248151207847377,0.00022248151207847377,2.4409841940862953,2.4409841940862953,2.4409841940862953,2.4409841940862953,94.0,94.0,94.0,94.0,1,1
0,0.009719332833777166,0.009719332833777166,0.009719332833777166,0.009719332833777166,52.0,52.0,52.0,52.0,0.007536769973862345,0.007536769973862345,0.007536769973862345,0.007536769973862345,9.446171827305685e-05,9.446171827305685e-05,9.446171827305685e-05,9.446171827305685e-05,1.260684996291187,1.260684996291187,1.260684996291187,1.260684996291187,93.0,93.0,93.0,93.0,1,6
0,0.09748582346131239,0.09748582346131239,0.09748582346131239,0.09748582346131239,78.0,78.0,78.0,78.0,0.07064546411245887,0.07064546411245887,0.07064546411245887,0.07064546411245887,0.009502896692537182,0.009502896692537182,0.009502896692537182,0.009502896692537182,17.456881924118456,17.456881924118456,17.456881924118456,17.456881924118456,102.0,102.0,102.0,102.0,1,5
0,0.008989338630259355,0.008989338630259355,0.008989338630259355,0.008989338630259355,65.0,65.0,65.0,65.0,0.00627297069394474,0.00627297069394474,0.00627297069394474,0.00627297069394474,8.05890984754323e-05,8.05890984754323e-05,8.05890984754323e-05,8.05890984754323e-05,1.2933110337111795,1.2933110337111795,1.2933110337111795,1.2933110337111795,93.0,93.0,93.0,93.0,1,3
0,0.013468619129904824,0.013468619129904824,0.013468619129904824,0.013468619129904824,86.0,86.0,86.0,86.0,0.01070742380386144,0.01070742380386144,0.01070742380386144,0.01070742380386144,0.00018116347721206126,0.00018116347721206126,0.00018116347721206126,0.00018116347721206126,2.531292103283934,2.531292103283934,2.531292103283934,2.531292103283934,103.0,103.0,103.0,103.0,1,1
0,0.032943910309939504,0.032943910309939504,0.032943910309939504,0.032943910309939504,64.0,64.0,64.0,64.0,0.022898329258785967,0.022898329258785967,0.022898329258785967,0.022898329258785967,0.001085299542708181,0.001085299542708181,0.001085299542708181,0.001085299542708181,4.824856961390298,4.824856961390298,4.824856961390298,4.824856961390298,97.0,97.0,97.0,97.0,1,4
0,0.015958357219125283,0.015958357219125283,0.015958357219125283,0.015958357219125283,69.0,69.0,69.0,69.0,0.013081940098711532,0.013081940098711532,0.013081940098711532,0.013081940098711532,0.00025451434531145023,0.00025451434531145023,0.00025451434531145023,0.00025451434531145023,2.7100680456204063,2.7100680456204063,2.7100680456204063,2.7100680456204063,102.0,102.0,102.0,102.0,1,2
0,0.016052783659045528,0.016052783659045528,0.016052783659045528,0.016052783659045528,50.0,50.0,50.0,50.0,0.011481062621678346,0.011481062621678346,0.011481062621678346,0.011481062621678346,0.0002576581518512353,0.0002576581518512353,0.0002576581518512353,0.0002576581518512353,2.105186148531574,2.105186148531574,2.105186148531574,2.105186148531574,101.0,101.0,101.0,101.0,1,3
0,0.018630619196905087,0.018630619196905087,0.018630619196905087,0.018630619196905087,53.0,53.0,53.0,53.0,0.013665339030104083,0.013665339030104083,0.013665339030104083,0.013665339030104083,0.0003470936614601081,0.0003470936614601081,0.0003470936614601081,0.0003470936614601081,2.4760380418716794,2.4760380418716794,2.4760380418716794,2.4760380418716794,101.0,101.0,101.0,101.0,1,4
0,0.07499052347721408,0.07499052347721408,0.07499052347721408,0.07499052347721408,78.0,78.0,78.0,78.0,0.05904675511947727,0.05904675511947727,0.05904675511947727,0.05904675511947727,0.005623371177135242,0.005623371177135242,0.005623371177135242,0.005623371177135242,13.709271847433511,13.709271847433511,13.709271847433511,13.709271847433511,99.0,99.0,99.0,99.0,1,5
0,0.02082873709882092,0.02082873709882092,0.02082873709882092,0.02082873709882092,76.0,76.0,76.0,76.0,0.016164067208210463,0.016164067208210463,0.016164067208210463,0.016164067208210463,0.00043365472022674365,0.00043365472022674365,0.00043365472022674365,0.00043365472022674365,3.4149224320342038,3.4149224320342038,3.4149224320342038,3.4149224320342038,94.0,94.0,94.0,94.0,1,2
0,0.016691168469179007,0.016691168469179007,0.016691168469179007,0.016691168469179007,76.0,76.0,76.0,76.0,0.012705132395247691,0.012705132395247691,0.012705132395247691,0.012705132395247691,0.0002785423986261966,0.0002785423986261966,0.0002785423986261966,0.0002785423986261966,2.9720087768426677,2.9720087768426677,2.9720087768426677,2.9720087768426677,111.0,111.0,111.0,111.0,1,1
0,0.018983467096020622,0.018983467096020622,0.018983467096020622,0.018983467096020622,58.0,58.0,58.0,58.0,0.01368986376193519,0.01368986376193519,0.01368986376193519,0.01368986376193519,0.0003603630327635937,0.0003603630327635937,0.0003603630327635937,0.0003603630327635937,2.764418504202776,2.764418504202776,2.764418504202776,2.764418504202776,87.0,87.0,87.0,87.0,1,6
0,0.013184696076570877,0.013184696076570877,0.013184696076570877,0.013184696076570877,57.0,57.0,57.0,57.0,0.009345741077943172,0.009345741077943172,0.009345741077943172,0.009345741077943172,0.00017381604873671294,0.00017381604873671294,0.00017381604873671294,0.00017381604873671294,1.804298233179281,1.804298233179281,1.804298233179281,1.804298233179281,96.0,96.0,96.0,96.0,1,3
0,0.013745702140443211,0.013745702140443211,0.013745702140443211,0.013745702140443211,81.0,81.0,81.0,81.0,0.0111748533144842,0.0111748533144842,0.0111748533144842,0.0111748533144842,0.0001887890638467658,0.0001887890638467658,0.0001887890638467658,0.0001887890638467658,2.7020098291495422,2.7020098291495422,2.7020098291495422,2.7020098291495422,116.0,116.0,116.0,116.0,1,1
0,0.01369855891067856,0.01369855891067856,0.01369855891067856,0.01369855891067856,54.0,54.0,54.0,54.0,0.010459498444492793,0.010459498444492793,0.010459498444492793,0.010459498444492793,0.0001875891806738232,0.0001875891806738232,0.0001875891806738232,0.0001875891806738232,1.9308790958529556,1.9308790958529556,1.9308790958529556,1.9308790958529556,97.0,97.0,97.0,97.0,1,6
0,0.025168731319485077,0.025168731319485077,0.025168731319485077,0.025168731319485077,67.0,67.0,67.0,67.0,0.01658326661153659,0.01658326661153659,0.01658326661153659,0.01658326661153659,0.0006334409486407694,0.0006334409486407694,0.0006334409486407694,0.0006334409486407694,3.3105183548577726,3.3105183548577726,3.3105183548577726,3.3105183548577726,102.0,102.0,102.0,102.0,1,2
0,0.062426326094039884,0.062426326094039884,0.062426326094039884,0.062426326094039884,78.0,78.0,78.0,78.0,0.049504081181818316,0.049504081181818316,0.049504081181818316,0.049504081181818316,0.0038969571619540486,0.0038969571619540486,0.0038969571619540486,0.0038969571619540486,12.282587965828458,12.282587965828458,12.282587965828458,12.282587965828458,95.0,95.0,95.0,95.0,1,5
0,0.031175763236961314,0.031175763236961314,0.031175763236961314,0.031175763236961314,61.0,61.0,61.0,61.0,0.023807115841661366,0.023807115841661366,0.023807115841661366,0.023807115841661366,0.0009719279939718366,0.0009719279939718366,0.0009719279939718366,0.0009719279939718366,4.866519891011302,4.866519891011302,4.866519891011302,4.866519891011302,99.0,99.0,99.0,99.0,1,4
0,0.014067086316866937,0.014067086316866937,0.014067086316866937,0.014067086316866937,78.0,78.0,78.0,78.0,0.011286373380695386,0.011286373380695386,0.011286373380695386,0.011286373380695386,0.00019785865334816897,0.00019785865334816897,0.00019785865334816897,0.00019785865334816897,2.4528976655245147,2.4528976655245147,2.4528976655245147,2.4528976655245147,111.0,111.0,111.0,111.0,1,1
0,0.02615652776837373,0.02615652776837373,0.02615652776837373,0.02615652776837373,66.0,66.0,66.0,66.0,0.018712463034191402,0.018712463034191402,0.018712463034191402,0.018712463034191402,0.0006840951162593353,0.0006840951162593353,0.0006840951162593353,0.0006840951162593353,4.001585230018652,4.001585230018652,4.001585230018652,4.001585230018652,87.0,87.0,87.0,87.0,1,2
0,0.014006884415219377,0.014006884415219377,0.014006884415219377,0.014006884415219377,67.0,67.0,67.0,67.0,0.009453484692031635,0.009453484692031635,0.009453484692031635,0.009453484692031635,0.00019616984695811592,0.00019616984695811592,0.00019616984695811592,0.00019616984695811592,1.9367056808320786,1.9367056808320786,1.9367056808320786,1.9367056808320786,90.0,90.0,90.0,90.0,1,3
0,0.06446496756798076,0.06446496756798076,0.06446496756798076,0.06446496756798076,72.0,72.0,72.0,72.0,0.05006279297862846,0.05006279297862846,0.05006279297862846,0.05006279297862846,0.0041551328421326125,0.0041551328421326125,0.0041551328421326125,0.0041551328421326125,11.124853730933701,11.124853730933701,11.124853730933701,11.124853730933701,102.0,102.0,102.0,102.0,1,5
0,0.022919472187375032,0.022919472187375032,0.022919472187375032,0.022919472187375032,71.0,71.0,71.0,71.0,0.016689681649925413,0.016689681649925413,0.016689681649925413,0.016689681649925413,0.0005252321843308724,0.0005252321843308724,0.0005252321843308724,0.0005252321843308724,3.4879177057819213,3.4879177057819213,3.4879177057819213,3.4879177057819213,107.0,107.0,107.0,107.0,1,4
0,0.008328765684376366,0.008328765684376366,0.008328765684376366,0.008328765684376366,59.0,59.0,59.0,59.0,0.00632599149892235,0.00632599149892235,0.00632599149892235,0.00632599149892235,6.920173624670763e-05,6.920173624670763e-05,6.920173624670763e-05,6.920173624670763e-05,1.1175261898713087,1.1175261898713087,1.1175261898713087,1.1175261898713087,91.0,91.0,91.0,91.0,1,6
0,0.042013076588791776,0.042013076588791776,0.042013076588791776,0.042013076588791776,84.0,84.0,84.0,84.0,0.030031517525271736,0.030031517525271736,0.030031517525271736,0.030031517525271736,0.0017648217820019068,0.0017648217820019068,0.0017648217820019068,0.0017648217820019068,7.364472972987912,7.364472972987912,7.364472972987912,7.364472972987912,101.0,101.0,101.0,101.0,1,5
0,0.020344708139279386,0.020344708139279386,0.020344708139279386,0.020344708139279386,63.0,63.0,63.0,63.0,0.01518566039375018,0.01518566039375018,0.01518566039375018,0.01518566039375018,0.00041363134155836007,0.00041363134155836007,0.00041363134155836007,0.00041363134155836007,3.062337585586304,3.062337585586304,3.062337585586304,3.062337585586304,89.0,89.0,89.0,89.0,1,2
0,0.009430566765169204,0.009430566765169204,0.009430566765169204,0.009430566765169204,64.0,64.0,64.0,64.0,0.007288740197581339,0.007288740197581339,0.007288740197581339,0.007288740197581339,8.890476629312203e-05,8.890476629312203e-05,8.890476629312203e-05,8.890476629312203e-05,1.4414877936786776,1.4414877936786776,1.4414877936786776,1.4414877936786776,107.0,107.0,107.0,107.0,1,6
0,0.011645173399062419,0.011645173399062419,0.011645173399062419,0.011645173399062419,62.0,62.0,62.0,62.0,0.008874164760003174,0.008874164760003174,0.008874164760003174,0.008874164760003174,0.00013558925361635985,0.00013558925361635985,0.00013558925361635985,0.00013558925361635985,1.4981332790417388,1.4981332790417388,1.4981332790417388,1.4981332790417388,90.0,90.0,90.0,90.0,1,3
0,0.020141993600223347,0.020141993600223347,0.020141993600223347,0.020141993600223347,56.0,56.0,56.0,56.0,0.015021956556969038,0.015021956556969038,0.015021956556969038,0.015021956556969038,0.00040564624375830386,0.00040564624375830386,0.00040564624375830386,0.00040564624375830386,2.7784988766692136,2.7784988766692136,2.7784988766692136,2.7784988766692136,78.0,78.0,78.0,78.0,1,4
0,0.013286481325700083,0.013286481325700083,0.013286481325700083,0.013286481325700083,91.0,91.0,91.0,91.0,0.010598561273386478,0.010598561273386478,0.010598561273386478,0.010598561273386478,0.00017639644389978672,0.00017639644389978672,0.00017639644389978672,0.00017639644389978672,2.572282028858193,2.572282028858193,2.572282028858193,2.572282028858193,116.0,116.0,116.0,116.0,1,1
0,0.014425477601362095,0.014425477601362095,0.014425477601362095,0.014425477601362095,55.0,55.0,55.0,55.0,0.011265657413291063,0.011265657413291063,0.011265657413291063,0.011265657413291063,0.00020784761756779035,0.00020784761756779035,0.00020784761756779035,0.00020784761756779035,2.0217023010430033,2.0217023010430033,2.0217023010430033,2.0217023010430033,93.0,93.0,93.0,93.0,1,4
0,0.026043118927840853,0.026043118927840853,0.026043118927840853,0.026043118927840853,69.0,69.0,69.0,69.0,0.018414234198465818,0.018414234198465818,0.018414234198465818,0.018414234198465818,0.0006782401600289756,0.0006782401600289756,0.0006782401600289756,0.0006782401600289756,3.7886741732374993,3.7886741732374993,3.7886741732374993,3.7886741732374993,88.0,88.0,88.0,88.0,1,2
0,0.013322617489618013,0.013322617489618013,0.013322617489618013,0.013322617489618013,72.0,72.0,72.0,72.0,0.01033908250248423,0.01033908250248423,0.01033908250248423,0.01033908250248423,0.00017747944746713472,0.00017747944746713472,0.00017747944746713472,0.00017747944746713472,2.4046998353036138,2.4046998353036138,2.4046998353036138,2.4046998353036138,105.0,105.0,105.0,105.0,1,1
0,0.012735168133066247,0.012735168133066247,0.012735168133066247,0.012735168133066247,68.0,68.0,68.0,68.0,0.010105116223392272,0.010105116223392272,0.010105116223392272,0.010105116223392272,0.00016218294642155473,0.00016218294642155473,0.00016218294642155473,0.00016218294642155473,2.1221595359631946,2.1221595359631946,2.1221595359631946,2.1221595359631946,99.0,99.0,99.0,99.0,1,6
0,0.01031991944853165,0.01031991944853165,0.01031991944853165,0.01031991944853165,58.0,58.0,58.0,58.0,0.008064318300582553,0.008064318300582553,0.008064318300582553,0.008064318300582553,0.00010649383236401476,0.00010649383236401476,0.00010649383236401476,0.00010649383236401476,1.5098500746422414,1.5098500746422414,1.5098500746422414,1.5098500746422414,87.0,87.0,87.0,87.0,1,3
0,0.0865090712406219,0.0865090712406219,0.0865090712406219,0.0865090712406219,85.0,85.0,85.0,85.0,0.0636622023063583,0.0636622023063583,0.0636622023063583,0.0636622023063583,0.007483311182986183,0.007483311182986183,0.007483311182986183,0.007483311182986183,15.38777079751622,15.38777079751622,15.38777079751622,15.38777079751622,103.0,103.0,103.0,103.0,1,5
0,0.018098388704302484,0.018098388704302484,0.018098388704302484,0.018098388704302484,60.0,60.0,60.0,60.0,0.014175446731660291,0.014175446731660291,0.014175446731660291,0.014175446731660291,0.00032755161928514875,0.00032755161928514875,0.00032755161928514875,0.00032755161928514875,2.629702818147819,2.629702818147819,2.629702818147819,2.629702818147819,102.0,102.0,102.0,102.0,1,4
0,0.012824896733705899,0.012824896733705899,0.012824896733705899,0.012824896733705899,69.0,69.0,69.0,69.0,0.010330243000775728,0.010330243000775728,0.010330243000775728,0.010330243000775728,0.00016447374935790098,0.00016447374935790098,0.00016447374935790098,0.00016447374935790098,2.346011069764491,2.346011069764491,2.346011069764491,2.346011069764491,100.0,100.0,100.0,100.0,1,6
0,0.08386302448423927,0.08386302448423927,0.08386302448423927,0.08386302448423927,88.0,88.0,88.0,88.0,0.06272871146577731,0.06272871146577731,0.06272871146577731,0.06272871146577731,0.007031963715647987,0.007031963715647987,0.007031963715647987,0.007031963715647987,15.464070358290193,15.464070358290193,15.464070358290193,15.464070358290193,107.0,107.0,107.0,107.0,1,5
0,0.008027656760536305,0.008027656760536305,0.008027656760536305,0.008027656760536305,66.0,66.0,66.0,66.0,0.006112403453506285,0.006112403453506285,0.006112403453506285,0.006112403453506285,6.443558674184913e-05,6.443558674184913e-05,6.443558674184913e-05,6.443558674184913e-05,1.170117139311788,1.170117139311788,1.170117139311788,1.170117139311788,84.0,84.0,84.0,84.0,1,3
0,0.015321037410491092,0.015321037410491092,0.015321037410491092,0.015321037410491092,72.0,72.0,72.0,72.0,0.011731368684167109,0.011731368684167109,0.011731368684167109,0.011731368684167109,0.00023466037689855748,0.00023466037689855748,0.00023466037689855748,0.00023466037689855748,2.4301828349495276,2.4301828349495276,2.4301828349495276,2.4301828349495276,95.0,95.0,95.0,95.0,1,2
