,rms0,rms1,rms2,rms3,zc0,zc1,zc2,zc3,mav0,mav1,mav2,mav3,var0,var1,var2,var3,wl0,wl1,wl2,wl3,ssc0,ssc1,ssc2,ssc3,contraction,output
0,0.027815371336501568,0.027815371336501568,0.027815371336501568,0.027815371336501568,88.0,88.0,88.0,88.0,0.021789031196650658,0.021789031196650658,0.021789031196650658,0.021789031196650658,0.0007736935767334688,0.0007736935767334688,0.0007736935767334688,0.0007736935767334688,5.408020908749722,5.408020908749722,5.408020908749722,5.408020908749722,111.0,111.0,111.0,111.0,1,1
0,0.006550301230656931,0.006550301230656931,0.006550301230656931,0.006550301230656931,52.0,52.0,52.0,52.0,0.005359292562092443,0.005359292562092443,0.005359292562092443,0.005359292562092443,4.289797006300501e-05,4.289797006300501e-05,4.289797006300501e-05,4.289797006300501e-05,0.9251251858862731,0.9251251858862731,0.9251251858862731,0.9251251858862731,113.0,113.0,113.0,113.0,1,4
0,0.07115394472072432,0.07115394472072432,0.07115394472072432,0.07115394472072432,82.0,82.0,82.0,82.0,0.05509791755033426,0.05509791755033426,0.05509791755033426,0.05509791755033426,0.0050628814286915935,0.0050628814286915935,0.0050628814286915935,0.0050628814286915935,13.083285647248546,13.083285647248546,13.083285647248546,13.083285647248546,102.0,102.0,102.0,102.0,1,5
0,0.016732018936586296,0.016732018936586296,0.016732018936586296,0.016732018936586296,61.0,61.0,61.0,61.0,0.013018991785771634,0.013018991785771634,0.013018991785771634,0.013018991785771634,0.00027993631517600996,0.00027993631517600996,0.00027993631517600996,0.00027993631517600996,2.5091451479963105,2.5091451479963105,2.5091451479963105,2.5091451479963105,89.0,89.0,89.0,89.0,1,6
0,0.025842574026351442,0.025842574026351442,0.025842574026351442,0.025842574026351442,68.0,68.0,68.0,68.0,0.019873111498852764,0.019873111498852764,0.019873111498852764,0.019873111498852764,0.0006676722535780917,0.0006676722535780917,0.0006676722535780917,0.0006676722535780917,4.155547860576899,4.155547860576899,4.155547860576899,4.155547860576899,95.0,95.0,95.0,95.0,1,3
0,0.03738409295797557,0.03738409295797557,0.03738409295797557,0.03738409295797557,72.0,72.0,72.0,72.0,0.02780786207330287,0.02780786207330287,0.02780786207330287,0.02780786207330287,0.0013975224079394327,0.0013975224079394327,0.0013975224079394327,0.0013975224079394327,6.135677218506004,6.135677218506004,6.135677218506004,6.135677218506004,91.0,91.0,91.0,91.0,1,2
0,0.017282882815181196,0.017282882815181196,0.017282882815181196,0.017282882815181196,71.0,71.0,71.0,71.0,0.01230023586741288,0.01230023586741288,0.01230023586741288,0.01230023586741288,0.000298696652657116,0.000298696652657116,0.000298696652657116,0.000298696652657116,2.44487547396435,2.44487547396435,2.44487547396435,2.44487547396435,98.0,98.0,98.0,98.0,1,6
0,0.029643504236911287,0.029643504236911287,0.029643504236911287,0.029643504236911287,68.0,68.0,68.0,68.0,0.020349950660705506,0.020349950660705506,0.020349950660705506,0.020349950660705506,0.0008787369354709068,0.0008787369354709068,0.0008787369354709068,0.0008787369354709068,4.269909628759995,4.269909628759995,4.269909628759995,4.269909628759995,99.0,99.0,99.0,99.0,1,2
0,0.03362351041832544,0.03362351041832544,0.03362351041832544,0.03362351041832544,82.0,82.0,82.0,82.0,0.02572258691367225,0.02572258691367225,0.02572258691367225,0.02572258691367225,0.0011304718632629066,0.0011304718632629066,0.0011304718632629066,0.0011304718632629066,6.165020929531722,6.165020929531722,6.165020929531722,6.165020929531722,104.0,104.0,104.0,104.0,1,5
0,0.018502973704228577,0.018502973704228577,0.018502973704228577,0.018502973704228577,77.0,77.0,77.0,77.0,0.014680017631806297,0.014680017631806297,0.014680017631806297,0.014680017631806297,0.00034235834963629167,0.00034235834963629167,0.00034235834963629167,0.00034235834963629167,3.4847659727409273,3.4847659727409273,3.4847659727409273,3.4847659727409273,101.0,101.0,101.0,101.0,1,1
0,0.005499015153338584,0.005499015153338584,0.005499015153338584,0.005499015153338584,68.0,68.0,68.0,68.0,0.004346804606922888,0.004346804606922888,0.004346804606922888,0.004346804606922888,3.0186826830364374e-05,3.0186826830364374e-05,3.0186826830364374e-05,3.0186826830364374e-05,0.7735478196616338,0.7735478196616338,0.7735478196616338,0.7735478196616338,97.0,97.0,97.0,97.0,1,4
0,0.023193134731941525,0.023193134731941525,0.023193134731941525,0.023193134731941525,65.0,65.0,65.0,65.0,0.016859511614476953,0.016859511614476953,0.016859511614476953,0.016859511614476953,0.0005378020836686663,0.0005378020836686663,0.0005378020836686663,0.0005378020836686663,3.455019398466767,3.455019398466767,3.455019398466767,3.455019398466767,81.0,81.0,81.0,81.0,1,3
0,0.025385290318806545,0.025385290318806545,0.025385290318806545,0.025385290318806545,65.0,65.0,65.0,65.0,0.018728898645742176,0.018728898645742176,0.018728898645742176,0.018728898645742176,0.0006441952538080867,0.0006441952538080867,0.0006441952538080867,0.0006441952538080867,4.037689863099271,4.037689863099271,4.037689863099271,4.037689863099271,91.0,91.0,91.0,91.0,1,2
0,0.022563039020115454,0.022563039020115454,0.022563039020115454,0.022563039020115454,71.0,71.0,71.0,71.0,0.01689994571557616,0.01689994571557616,0.01689994571557616,0.01689994571557616,0.0005090719071193267,0.0005090719071193267,0.0005090719071193267,0.0005090719071193267,4.0128747149346635,4.0128747149346635,4.0128747149346635,4.0128747149346635,107.0,107.0,107.0,107.0,1,1
0,0.057786870642922705,0.057786870642922705,0.057786870642922705,0.057786870642922705,68.0,68.0,68.0,68.0,0.04508545778956275,0.04508545778956275,0.04508545778956275,0.04508545778956275,0.0033390524703388624,0.0033390524703388624,0.0033390524703388624,0.0033390524703388624,9.829873081935949,9.829873081935949,9.829873081935949,9.829873081935949,97.0,97.0,97.0,97.0,1,5
0,0.004571210372281221,0.004571210372281221,0.004571210372281221,0.004571210372281221,93.0,93.0,93.0,93.0,0.0035879587892769372,0.0035879587892769372,0.0035879587892769372,0.0035879587892769372,2.0895961904768032e-05,2.0895961904768032e-05,2.0895961904768032e-05,2.0895961904768032e-05,0.9263959730918334,0.9263959730918334,0.9263959730918334,0.9263959730918334,141.0,141.0,141.0,141.0,1,4
0,0.010879211515486794,0.010879211515486794,0.010879211515486794,0.010879211515486794,71.0,71.0,71.0,71.0,0.007646856982492245,0.007646856982492245,0.007646856982492245,0.007646856982492245,0.00011831499088244271,0.00011831499088244271,0.00011831499088244271,0.00011831499088244271,1.562065219094562,1.562065219094562,1.562065219094562,1.562065219094562,112.0,112.0,112.0,112.0,1,3
0,0.012876805905062199,0.012876805905062199,0.012876805905062199,0.012876805905062199,68.0,68.0,68.0,68.0,0.009450150768761479,0.009450150768761479,0.009450150768761479,0.009450150768761479,0.00016577548100687816,0.00016577548100687816,0.00016577548100687816,0.00016577548100687816,2.024099209395249,2.024099209395249,2.024099209395249,2.024099209395249,109.0,109.0,109.0,109.0,1,6
0,0.024141510174289213,0.024141510174289213,0.024141510174289213,0.024141510174289213,89.0,89.0,89.0,89.0,0.01856798268663237,0.01856798268663237,0.01856798268663237,0.01856798268663237,0.0005828124928574664,0.0005828124928574664,0.0005828124928574664,0.0005828124928574664,4.442952136991785,4.442952136991785,4.442952136991785,4.442952136991785,106.0,106.0,106.0,106.0,1,1
0,0.01722039716887676,0.01722039716887676,0.01722039716887676,0.01722039716887676,65.0,65.0,65.0,65.0,0.012815054903184598,0.012815054903184598,0.012815054903184598,0.012815054903184598,0.0002965199006986923,0.0002965199006986923,0.0002965199006986923,0.0002965199006986923,2.5342552489192656,2.5342552489192656,2.5342552489192656,2.5342552489192656,105.0,105.0,105.0,105.0,1,6
0,0.0242796358153115,0.0242796358153115,0.0242796358153115,0.0242796358153115,64.0,64.0,64.0,64.0,0.01767474592342712,0.01767474592342712,0.01767474592342712,0.01767474592342712,0.0005894822548011278,0.0005894822548011278,0.0005894822548011278,0.0005894822548011278,3.535105084400947,3.535105084400947,3.535105084400947,3.535105084400947,101.0,101.0,101.0,101.0,1,3
0,0.023945847492627827,0.023945847492627827,0.023945847492627827,0.023945847492627827,68.0,68.0,68.0,68.0,0.017356807186803387,0.017356807186803387,0.017356807186803387,0.017356807186803387,0.0005733020702584505,0.0005733020702584505,0.0005733020702584505,0.0005733020702584505,3.4947005670853004,3.4947005670853004,3.4947005670853004,3.4947005670853004,109.0,109.0,109.0,109.0,1,2
0,0.004407805842492362,0.004407805842492362,0.004407805842492362,0.004407805842492362,76.0,76.0,76.0,76.0,0.003548964609879403,0.003548964609879403,0.003548964609879403,0.003548964609879403,1.9427880858036315e-05,1.9427880858036315e-05,1.9427880858036315e-05,1.9427880858036315e-05,0.7706742915307174,0.7706742915307174,0.7706742915307174,0.7706742915307174,124.0,124.0,124.0,124.0,1,4
0,0.04436075959252537,0.04436075959252537,0.04436075959252537,0.04436075959252537,75.0,75.0,75.0,75.0,0.034638120191874795,0.034638120191874795,0.034638120191874795,0.034638120191874795,0.0019678018904165395,0.0019678018904165395,0.0019678018904165395,0.0019678018904165395,7.987373191017274,7.987373191017274,7.987373191017274,7.987373191017274,104.0,104.0,104.0,104.0,1,5
0,0.012960359236083609,0.012960359236083609,0.012960359236083609,0.012960359236083609,70.0,70.0,70.0,70.0,0.008012700883934725,0.008012700883934725,0.008012700883934725,0.008012700883934725,0.00016795958472850706,0.00016795958472850706,0.00016795958472850706,0.00016795958472850706,1.6535148742948005,1.6535148742948005,1.6535148742948005,1.6535148742948005,103.0,103.0,103.0,103.0,1,4
0,0.015205546479836733,0.015205546479836733,0.015205546479836733,0.015205546479836733,61.0,61.0,61.0,61.0,0.011579779481484219,0.011579779481484219,0.011579779481484219,0.011579779481484219,0.00023112797564889392,0.00023112797564889392,0.00023112797564889392,0.00023112797564889392,2.135961668841841,2.135961668841841,2.135961668841841,2.135961668841841,101.0,101.0,101.0,101.0,1,6
0,0.01744603349517439,0.01744603349517439,0.01744603349517439,0.01744603349517439,63.0,63.0,63.0,63.0,0.013536915233580216,0.013536915233580216,0.013536915233580216,0.013536915233580216,0.00030433268326192044,0.00030433268326192044,0.00030433268326192044,0.00030433268326192044,2.7139419213865574,2.7139419213865574,2.7139419213865574,2.7139419213865574,93.0,93.0,93.0,93.0,1,2
0,0.019425032376228304,0.019425032376228304,0.019425032376228304,0.019425032376228304,78.0,78.0,78.0,78.0,0.01474481273885517,0.01474481273885517,0.01474481273885517,0.01474481273885517,0.00037729443065029176,0.00037729443065029176,0.00037729443065029176,0.00037729443065029176,3.3536375971816677,3.3536375971816677,3.3536375971816677,3.3536375971816677,108.0,108.0,108.0,108.0,1,1
0,0.018002147616688776,0.018002147616688776,0.018002147616688776,0.018002147616688776,61.0,61.0,61.0,61.0,0.013162077376864423,0.013162077376864423,0.013162077376864423,0.013162077376864423,0.0003240728208891085,0.0003240728208891085,0.0003240728208891085,0.0003240728208891085,2.5841851133923983,2.5841851133923983,2.5841851133923983,2.5841851133923983,92.0,92.0,92.0,92.0,1,3
0,0.04092193603579997,0.04092193603579997,0.04092193603579997,0.04092193603579997,74.0,74.0,74.0,74.0,0.032016791786955504,0.032016791786955504,0.032016791786955504,0.032016791786955504,0.0016744323670404657,0.0016744323670404657,0.0016744323670404657,0.0016744323670404657,7.325985707385099,7.325985707385099,7.325985707385099,7.325985707385099,99.0,99.0,99.0,99.0,1,5
0,0.024061009079621363,0.024061009079621363,0.024061009079621363,0.024061009079621363,70.0,70.0,70.0,70.0,0.01721165432544789,0.01721165432544789,0.01721165432544789,0.01721165432544789,0.0005788086243440113,0.0005788086243440113,0.0005788086243440113,0.0005788086243440113,3.770043685545936,3.770043685545936,3.770043685545936,3.770043685545936,96.0,96.0,96.0,96.0,1,6
0,0.024053483988720974,0.024053483988720974,0.024053483988720974,0.024053483988720974,63.0,63.0,63.0,63.0,0.017357048582249304,0.017357048582249304,0.017357048582249304,0.017357048582249304,0.0005785560359876443,0.0005785560359876443,0.0005785560359876443,0.0005785560359876443,3.5281378971935777,3.5281378971935777,3.5281378971935777,3.5281378971935777,83.0,83.0,83.0,83.0,1,3
0,0.05718984317357994,0.05718984317357994,0.05718984317357994,0.05718984317357994,67.0,67.0,67.0,67.0,0.04601178561134651,0.04601178561134651,0.04601178561134651,0.04601178561134651,0.0032706755820827867,0.0032706755820827867,0.0032706755820827867,0.0032706755820827867,10.277274110371476,10.277274110371476,10.277274110371476,10.277274110371476,99.0,99.0,99.0,99.0,1,5
0,0.018434828761147295,0.018434828761147295,0.018434828761147295,0.018434828761147295,59.0,59.0,59.0,59.0,0.014070210317834947,0.014070210317834947,0.014070210317834947,0.014070210317834947,0.0003397721920794589,0.0003397721920794589,0.0003397721920794589,0.0003397721920794589,2.8225874475371975,2.8225874475371975,2.8225874475371975,2.8225874475371975,78.0,78.0,78.0,78.0,1,2
0,0.004378808754995834,0.004378808754995834,0.004378808754995834,0.004378808754995834,50.0,50.0,50.0,50.0,0.0035929566780938506,0.0035929566780938506,0.0035929566780938506,0.0035929566780938506,1.9172978172069482e-05,1.9172978172069482e-05,1.9172978172069482e-05,1.9172978172069482e-05,0.6365798637392491,0.6365798637392491,0.6365798637392491,0.6365798637392491,114.0,114.0,114.0,114.0,1,4
0,0.01239161536934018,0.01239161536934018,0.01239161536934018,0.01239161536934018,91.0,91.0,91.0,91.0,0.009789690901544112,0.009789690901544112,0.009789690901544112,0.009789690901544112,0.000153444442704218,0.000153444442704218,0.000153444442704218,0.000153444442704218,2.5131031201601415,2.5131031201601415,2.5131031201601415,2.5131031201601415,122.0,122.0,122.0,122.0,1,1
0,0.004302319739723754,0.004302319739723754,0.004302319739723754,0.004302319739723754,61.0,61.0,61.0,61.0,0.0033729229570011636,0.0033729229570011636,0.0033729229570011636,0.0033729229570011636,1.8509827271998624e-05,1.8509827271998624e-05,1.8509827271998624e-05,1.8509827271998624e-05,0.6346629425192776,0.6346629425192776,0.6346629425192776,0.6346629425192776,102.0,102.0,102.0,102.0,1,4
0,0.005562735206235471,0.005562735206235471,0.005562735206235471,0.005562735206235471,76.0,76.0,76.0,76.0,0.0042759014903038794,0.0042759014903038794,0.0042759014903038794,0.0042759014903038794,3.094075565831674e-05,3.094075565831674e-05,3.094075565831674e-05,3.094075565831674e-05,0.989511436925417,0.989511436925417,0.989511436925417,0.989511436925417,111.0,111.0,111.0,111.0,1,6
0,0.049428184250077306,0.049428184250077306,0.049428184250077306,0.049428184250077306,71.0,71.0,71.0,71.0,0.039854182481629336,0.039854182481629336,0.039854182481629336,0.039854182481629336,0.0024427215274865984,0.0024427215274865984,0.0024427215274865984,0.0024427215274865984,9.10596819806038,9.10596819806038,9.10596819806038,9.10596819806038,104.0,104.0,104.0,104.0,1,5
0,0.013879284595021288,0.013879284595021288,0.013879284595021288,0.013879284595021288,58.0,58.0,58.0,58.0,0.00927948161954239,0.00927948161954239,0.00927948161954239,0.00927948161954239,0.00019263143987458833,0.00019263143987458833,0.00019263143987458833,0.00019263143987458833,1.6898291028064687,1.6898291028064687,1.6898291028064687,1.6898291028064687,82.0,82.0,82.0,82.0,1,3
0,0.02189694744001832,0.02189694744001832,0.02189694744001832,0.02189694744001832,80.0,80.0,80.0,80.0,0.01721937814094968,0.01721937814094968,0.01721937814094968,0.01721937814094968,0.0004793958545076796,0.0004793958545076796,0.0004793958545076796,0.0004793958545076796,4.072303301207755,4.072303301207755,4.072303301207755,4.072303301207755,113.0,113.0,113.0,113.0,1,1
0,0.02378400349687927,0.02378400349687927,0.02378400349687927,0.02378400349687927,56.0,56.0,56.0,56.0,0.017824697280976888,0.017824697280976888,0.017824697280976888,0.017824697280976888,0.0005655290046852049,0.0005655290046852049,0.0005655290046852049,0.0005655290046852049,3.3750119280446578,3.3750119280446578,3.3750119280446578,3.3750119280446578,89.0,89.0,89.0,89.0,1,2
0,0.00464314180285736,0.00464314180285736,0.00464314180285736,0.00464314180285736,48.0,48.0,48.0,48.0,0.0036288435754193225,0.0036288435754193225,0.0036288435754193225,0.0036288435754193225,2.1546658160106852e-05,2.1546658160106852e-05,2.1546658160106852e-05,2.1546658160106852e-05,0.6289387425357981,0.6289387425357981,0.6289387425357981,0.6289387425357981,108.0,108.0,108.0,108.0,1,4
0,0.021223897098794926,0.021223897098794926,0.021223897098794926,0.021223897098794926,66.0,66.0,66.0,66.0,0.016026440420841493,0.016026440420841493,0.016026440420841493,0.016026440420841493,0.00045042470061772177,0.00045042470061772177,0.00045042470061772177,0.00045042470061772177,3.406747943398008,3.406747943398008,3.406747943398008,3.406747943398008,90.0,90.0,90.0,90.0,1,3
0,0.052331677878020656,0.052331677878020656,0.052331677878020656,0.052331677878020656,64.0,64.0,64.0,64.0,0.040612719171904364,0.040612719171904364,0.040612719171904364,0.040612719171904364,0.0027385069061428746,0.0027385069061428746,0.0027385069061428746,0.0027385069061428746,8.676348078735355,8.676348078735355,8.676348078735355,8.676348078735355,89.0,89.0,89.0,89.0,1,5
0,0.02304531193674468,0.02304531193674468,0.02304531193674468,0.02304531193674468,97.0,97.0,97.0,97.0,0.017790042434337593,0.017790042434337593,0.017790042434337593,0.017790042434337593,0.0005310856354439103,0.0005310856354439103,0.0005310856354439103,0.0005310856354439103,4.6331314211869135,4.6331314211869135,4.6331314211869135,4.6331314211869135,114.0,114.0,114.0,114.0,1,1
0,0.018395753467444407,0.018395753467444407,0.018395753467444407,0.018395753467444407,70.0,70.0,70.0,70.0,0.013261908024415417,0.013261908024415417,0.013261908024415417,0.013261908024415417,0.0003383810523850333,0.0003383810523850333,0.0003383810523850333,0.0003383810523850333,2.874872188406812,2.874872188406812,2.874872188406812,2.874872188406812,99.0,99.0,99.0,99.0,1,6
0,0.015122441584018861,0.015122441584018861,0.015122441584018861,0.015122441584018861,66.0,66.0,66.0,66.0,0.011443707591901274,0.011443707591901274,0.011443707591901274,0.011443707591901274,0.00022866959971142638,0.00022866959971142638,0.00022866959971142638,0.00022866959971142638,2.35725956316717,2.35725956316717,2.35725956316717,2.35725956316717,83.0,83.0,83.0,83.0,1,2
0,0.01305611910990473,0.01305611910990473,0.01305611910990473,0.01305611910990473,70.0,70.0,70.0,70.0,0.009192335749460852,0.009192335749460852,0.009192335749460852,0.009192335749460852,0.00017045225195446622,0.00017045225195446622,0.00017045225195446622,0.00017045225195446622,1.858635375097875,1.858635375097875,1.858635375097875,1.858635375097875,96.0,96.0,96.0,96.0,1,6
0,0.004100615662291871,0.004100615662291871,0.004100615662291871,0.004100615662291871,60.0,60.0,60.0,60.0,0.0032631997584994187,0.0032631997584994187,0.0032631997584994187,0.0032631997584994187,1.6813332534472157e-05,1.6813332534472157e-05,1.6813332534472157e-05,1.6813332534472157e-05,0.6374991621440884,0.6374991621440884,0.6374991621440884,0.6374991621440884,121.0,121.0,121.0,121.0,1,4
0,0.01846318944086879,0.01846318944086879,0.01846318944086879,0.01846318944086879,80.0,80.0,80.0,80.0,0.014540068314927726,0.014540068314927726,0.014540068314927726,0.014540068314927726,0.0003408890597627093,0.0003408890597627093,0.0003408890597627093,0.0003408890597627093,3.3809709359682802,3.3809709359682802,3.3809709359682802,3.3809709359682802,121.0,121.0,121.0,121.0,1,1
0,0.0481589146065333,0.0481589146065333,0.0481589146065333,0.0481589146065333,72.0,72.0,72.0,72.0,0.03613820343454511,0.03613820343454511,0.03613820343454511,0.03613820343454511,0.002319279648681201,0.002319279648681201,0.002319279648681201,0.002319279648681201,8.428751878725922,8.428751878725922,8.428751878725922,8.428751878725922,108.0,108.0,108.0,108.0,1,5
0,0.018243939339294035,0.018243939339294035,0.018243939339294035,0.018243939339294035,59.0,59.0,59.0,59.0,0.013141713180858898,0.013141713180858898,0.013141713180858898,0.013141713180858898,0.0003328384593787992,0.0003328384593787992,0.0003328384593787992,0.0003328384593787992,2.8449513552678862,2.8449513552678862,2.8449513552678862,2.8449513552678862,78.0,78.0,78.0,78.0,1,3
0,0.01829590400302223,0.01829590400302223,0.01829590400302223,0.01829590400302223,66.0,66.0,66.0,66.0,0.013494398302348286,0.013494398302348286,0.013494398302348286,0.013494398302348286,0.000334636455139732,0.000334636455139732,0.000334636455139732,0.000334636455139732,2.705814596100229,2.705814596100229,2.705814596100229,2.705814596100229,89.0,89.0,89.0,89.0,1,2
0,0.026167340061813687,0.026167340061813687,0.026167340061813687,0.026167340061813687,61.0,61.0,61.0,61.0,0.019542952133492636,0.019542952133492636,0.019542952133492636,0.019542952133492636,0.0006847110638069849,0.0006847110638069849,0.0006847110638069849,0.0006847110638069849,3.771153818872361,3.771153818872361,3.771153818872361,3.771153818872361,88.0,88.0,88.0,88.0,1,2
0,0.05103478352780612,0.05103478352780612,0.05103478352780612,0.05103478352780612,79.0,79.0,79.0,79.0,0.04127413748116162,0.04127413748116162,0.04127413748116162,0.04127413748116162,0.0026044288483752292,0.0026044288483752292,0.0026044288483752292,0.0026044288483752292,9.890708315584497,9.890708315584497,9.890708315584497,9.890708315584497,105.0,105.0,105.0,105.0,1,5
0,0.00495721583489915,0.00495721583489915,0.00495721583489915,0.00495721583489915,53.0,53.0,53.0,53.0,0.0038851947843079803,0.0038851947843079803,0.0038851947843079803,0.0038851947843079803,2.4573698661640155e-05,2.4573698661640155e-05,2.4573698661640155e-05,2.4573698661640155e-05,0.6934315465096794,0.6934315465096794,0.6934315465096794,0.6934315465096794,105.0,105.0,105.0,105.0,1,4
0,0.016133952803358418,0.016133952803358418,0.016133952803358418,0.016133952803358418,65.0,65.0,65.0,65.0,0.010919113734214446,0.010919113734214446,0.010919113734214446,0.010919113734214446,0.00026021477588349996,0.00026021477588349996,0.00026021477588349996,0.00026021477588349996,2.1023674567881416,2.1023674567881416,2.1023674567881416,2.1023674567881416,100.0,100.0,100.0,100.0,1,6
0,0.030599203677041997,0.030599203677041997,0.030599203677041997,0.030599203677041997,77.0,77.0,77.0,77.0,0.022217515397163247,0.022217515397163247,0.022217515397163247,0.022217515397163247,0.0009363019128035523,0.0009363019128035523,0.0009363019128035523,0.0009363019128035523,4.8532221840206144,4.8532221840206144,4.8532221840206144,4.8532221840206144,99.0,99.0,99.0,99.0,1,1
0,0.016393721124913944,0.016393721124913944,0.016393721124913944,0.016393721124913944,54.0,54.0,54.0,54.0,0.011099257979251756,0.011099257979251756,0.011099257979251756,0.011099257979251756,0.0002687350522592554,0.0002687350522592554,0.0002687350522592554,0.0002687350522592554,2.021921693580376,2.021921693580376,2.021921693580376,2.021921693580376,86.0,86.0,86.0,86.0,1,3
0,0.023280547952376118,0.023280547952376118,0.023280547952376118,0.023280547952376118,56.0,56.0,56.0,56.0,0.016298041324613634,0.016298041324613634,0.016298041324613634,0.016298041324613634,0.0005419792969625617,0.0005419792969625617,0.0005419792969625617,0.0005419792969625617,3.2356442410776443,3.2356442410776443,3.2356442410776443,3.2356442410776443,91.0,91.0,91.0,91.0,1,3
0,0.019308814023787594,0.019308814023787594,0.019308814023787594,0.019308814023787594,79.0,79.0,79.0,79.0,0.013161834426980072,0.013161834426980072,0.013161834426980072,0.013161834426980072,0.0003727117197073932,0.0003727117197073932,0.0003727117197073932,0.0003727117197073932,3.1881749000550244,3.1881749000550244,3.1881749000550244,3.1881749000550244,111.0,111.0,111.0,111.0,1,6
0,0.02255732583633924,0.02255732583633924,0.02255732583633924,0.02255732583633924,74.0,74.0,74.0,74.0,0.016581964285806085,0.016581964285806085,0.016581964285806085,0.016581964285806085,0.0005088319450001958,0.0005088319450001958,0.0005088319450001958,0.0005088319450001958,3.708186651687189,3.708186651687189,3.708186651687189,3.708186651687189,94.0,94.0,94.0,94.0,1,2
0,0.00446704967824353,0.00446704967824353,0.00446704967824353,0.00446704967824353,64.0,64.0,64.0,64.0,0.0036031967612658953,0.0036031967612658953,0.0036031967612658953,0.0036031967612658953,1.9953153992066477e-05,1.9953153992066477e-05,1.9953153992066477e-05,1.9953153992066477e-05,0.6302705724694462,0.6302705724694462,0.6302705724694462,0.6302705724694462,110.0,110.0,110.0,110.0,1,4
0,0.06446009551249135,0.06446009551249135,0.06446009551249135,0.06446009551249135,67.0,67.0,67.0,67.0,0.050961285737766954,0.050961285737766954,0.050961285737766954,0.050961285737766954,0.004155102637261962,0.004155102637261962,0.004155102637261962,0.004155102637261962,10.831253898495882,10.831253898495882,10.831253898495882,10.831253898495882,86.0,86.0,86.0,86.0,1,5
0,0.016153347940222638,0.016153347940222638,0.016153347940222638,0.016153347940222638,74.0,74.0,74.0,74.0,0.012648854097914363,0.012648854097914363,0.012648854097914363,0.012648854097914363,0.0002609264791322137,0.0002609264791322137,0.0002609264791322137,0.0002609264791322137,2.871005036649496,2.871005036649496,2.871005036649496,2.871005036649496,108.0,108.0,108.0,108.0,1,1
0,0.012563398010813211,0.012563398010813211,0.012563398010813211,0.012563398010813211,74.0,74.0,74.0,74.0,0.00903044040326703,0.00903044040326703,0.00903044040326703,0.00903044040326703,0.00015781916040037916,0.00015781916040037916,0.00015781916040037916,0.00015781916040037916,1.8351270749040534,1.8351270749040534,1.8351270749040534,1.8351270749040534,91.0,91.0,91.0,91.0,1,6
0,0.014459515936056634,0.014459515936056634,0.014459515936056634,0.014459515936056634,78.0,78.0,78.0,78.0,0.011331812424631387,0.011331812424631387,0.011331812424631387,0.011331812424631387,0.0002090576032410325,0.0002090576032410325,0.0002090576032410325,0.0002090576032410325,2.4825692311811958,2.4825692311811958,2.4825692311811958,2.4825692311811958,102.0,102.0,102.0,102.0,1,2
0,0.004586530683087028,0.004586530683087028,0.004586530683087028,0.004586530683087028,62.0,62.0,62.0,62.0,0.003543461807351955,0.003543461807351955,0.003543461807351955,0.003543461807351955,2.103546653093784e-05,2.103546653093784e-05,2.103546653093784e-05,2.103546653093784e-05,0.6866756049853824,0.6866756049853824,0.6866756049853824,0.6866756049853824,103.0,103.0,103.0,103.0,1,4
0,0.012591981871470048,0.012591981871470048,0.012591981871470048,0.012591981871470048,61.0,61.0,61.0,61.0,0.008472872328394365,0.008472872328394365,0.008472872328394365,0.008472872328394365,0.00015854659672315388,0.00015854659672315388,0.00015854659672315388,0.00015854659672315388,1.692585534445052,1.692585534445052,1.692585534445052,1.692585534445052,86.0,86.0,86.0,86.0,1,3
0,0.05412754901957331,0.05412754901957331,0.05412754901957331,0.05412754901957331,71.0,71.0,71.0,71.0,0.04291912688590119,0.04291912688590119,0.04291912688590119,0.04291912688590119,0.002929776561851411,0.002929776561851411,0.002929776561851411,0.002929776561851411,8.666555532045153,8.666555532045153,8.666555532045153,8.666555532045153,91.0,91.0,91.0,91.0,1,5
0,0.014455993829307855,0.014455993829307855,0.014455993829307855,0.014455993829307855,86.0,86.0,86.0,86.0,0.010993171106413983,0.010993171106413983,0.010993171106413983,0.010993171106413983,0.00020884612287631082,0.00020884612287631082,0.00020884612287631082,0.00020884612287631082,2.7924942906480235,2.7924942906480235,2.7924942906480235,2.7924942906480235,112.0,112.0,112.0,112.0,1,1
0,0.004519914915029323,0.004519914915029323,0.004519914915029323,0.004519914915029323,45.0,45.0,45.0,45.0,0.003577187913523846,0.003577187913523846,0.003577187913523846,0.003577187913523846,2.0426598459844348e-05,2.0426598459844348e-05,2.0426598459844348e-05,2.0426598459844348e-05,0.619310303633175,0.619310303633175,0.619310303633175,0.619310303633175,99.0,99.0,99.0,99.0,1,4
0,0.019199738301446778,0.019199738301446778,0.019199738301446778,0.019199738301446778,63.0,63.0,63.0,63.0,0.013110585439537976,0.013110585439537976,0.013110585439537976,0.013110585439537976,0.0003685607751497493,0.0003685607751497493,0.0003685607751497493,0.0003685607751497493,2.631617124185576,2.631617124185576,2.631617124185576,2.631617124185576,89.0,89.0,89.0,89.0,1,3
0,0.014809461602868293,0.014809461602868293,0.014809461602868293,0.014809461602868293,84.0,84.0,84.0,84.0,0.01169447637062267,0.01169447637062267,0.01169447637062267,0.01169447637062267,0.0002190871837784036,0.0002190871837784036,0.0002190871837784036,0.0002190871837784036,2.6868877154297524,2.6868877154297524,2.6868877154297524,2.6868877154297524,109.0,109.0,109.0,109.0,1,1
0,0.014998235785209943,0.014998235785209943,0.014998235785209943,0.014998235785209943,77.0,77.0,77.0,77.0,0.011161790270149043,0.011161790270149043,0.011161790270149043,0.011161790270149043,0.00022494677478721755,0.00022494677478721755,0.00022494677478721755,0.00022494677478721755,2.2736325080954463,2.2736325080954463,2.2736325080954463,2.2736325080954463,100.0,100.0,100.0,100.0,1,2
0,0.009852814423089367,0.009852814423089367,0.009852814423089367,0.009852814423089367,67.0,67.0,67.0,67.0,0.007037655706963245,0.007037655706963245,0.007037655706963245,0.007037655706963245,9.703206819138252e-05,9.703206819138252e-05,9.703206819138252e-05,9.703206819138252e-05,1.5166475050095447,1.5166475050095447,1.5166475050095447,1.5166475050095447,98.0,98.0,98.0,98.0,1,6
0,0.05311924340372448,0.05311924340372448,0.05311924340372448,0.05311924340372448,71.0,71.0,71.0,71.0,0.042031025543764214,0.042031025543764214,0.042031025543764214,0.042031025543764214,0.0028213328522125655,0.0028213328522125655,0.0028213328522125655,0.0028213328522125655,9.402266842492674,9.402266842492674,9.402266842492674,9.402266842492674,101.0,101.0,101.0,101.0,1,5
0,0.01913304053825341,0.01913304053825341,0.01913304053825341,0.01913304053825341,74.0,74.0,74.0,74.0,0.01508173743922419,0.01508173743922419,0.01508173743922419,0.01508173743922419,0.00036606689251572524,0.00036606689251572524,0.00036606689251572524,0.00036606689251572524,3.5887014836362376,3.5887014836362376,3.5887014836362376,3.5887014836362376,113.0,113.0,113.0,113.0,1,1
0,0.006849059064079097,0.006849059064079097,0.006849059064079097,0.006849059064079097,68.0,68.0,68.0,68.0,0.00535495454249264,0.00535495454249264,0.00535495454249264,0.00535495454249264,4.690626830226281e-05,4.690626830226281e-05,4.690626830226281e-05,4.690626830226281e-05,1.2223857031181944,1.2223857031181944,1.2223857031181944,1.2223857031181944,102.0,102.0,102.0,102.0,1,6
0,0.004455693540535874,0.004455693540535874,0.004455693540535874,0.004455693540535874,60.0,60.0,60.0,60.0,0.003465242683135968,0.003465242683135968,0.003465242683135968,0.003465242683135968,1.9850084921115365e-05,1.9850084921115365e-05,1.9850084921115365e-05,1.9850084921115365e-05,0.6545305702053257,0.6545305702053257,0.6545305702053257,0.6545305702053257,107.0,107.0,107.0,107.0,1,4
0,0.048570936071592574,0.048570936071592574,0.048570936071592574,0.048570936071592574,88.0,88.0,88.0,88.0,0.03893029562765647,0.03893029562765647,0.03893029562765647,0.03893029562765647,0.002359062286057006,0.002359062286057006,0.002359062286057006,0.002359062286057006,9.350936190005195,9.350936190005195,9.350936190005195,9.350936190005195,108.0,108.0,108.0,108.0,1,5
0,0.024349053774424197,0.024349053774424197,0.024349053774424197,0.024349053774424197,65.0,65.0,65.0,65.0,0.01874899739974364,0.01874899739974364,0.01874899739974364,0.01874899739974364,0.0005928359895676344,0.0005928359895676344,0.0005928359895676344,0.0005928359895676344,4.0584808082083335,4.0584808082083335,4.0584808082083335,4.0584808082083335,90.0,90.0,90.0,90.0,1,2
0,0.017043514857005355,0.017043514857005355,0.017043514857005355,0.017043514857005355,62.0,62.0,62.0,62.0,0.0113492098184423,0.0113492098184423,0.0113492098184423,0.0113492098184423,0.00029029131121215623,0.00029029131121215623,0.00029029131121215623,0.00029029131121215623,2.3509864452895206,2.3509864452895206,2.3509864452895206,2.3509864452895206,104.0,104.0,104.0,104.0,1,3
0,0.0164362990637418,0.0164362990637418,0.0164362990637418,0.0164362990637418,74.0,74.0,74.0,74.0,0.012614965273767341,0.012614965273767341,0.012614965273767341,0.012614965273767341,0.00027001569297138787,0.00027001569297138787,0.00027001569297138787,0.00027001569297138787,2.7898858775799416,2.7898858775799416,2.7898858775799416,2.7898858775799416,105.0,105.0,105.0,105.0,1,1
0,0.004668612339162156,0.004668612339162156,0.004668612339162156,0.004668612339162156,60.0,60.0,60.0,60.0,0.003654051004099429,0.003654051004099429,0.003654051004099429,0.003654051004099429,2.1794622593237648e-05,2.1794622593237648e-05,2.1794622593237648e-05,2.1794622593237648e-05,0.6927749982959206,0.6927749982959206,0.6927749982959206,0.6927749982959206,104.0,104.0,104.0,104.0,1,4
0,0.01088141492787592,0.01088141492787592,0.01088141492787592,0.01088141492787592,71.0,71.0,71.0,71.0,0.008349574886487148,0.008349574886487148,0.008349574886487148,0.008349574886487148,0.00011833804166297424,0.00011833804166297424,0.00011833804166297424,0.00011833804166297424,1.7118821795962076,1.7118821795962076,1.7118821795962076,1.7118821795962076,97.0,97.0,97.0,97.0,1,2
0,0.044048318804295945,0.044048318804295945,0.044048318804295945,0.044048318804295945,68.0,68.0,68.0,68.0,0.03391279791617219,0.03391279791617219,0.03391279791617219,0.03391279791617219,0.0019400184033544381,0.0019400184033544381,0.0019400184033544381,0.0019400184033544381,7.949300079347327,7.949300079347327,7.949300079347327,7.949300079347327,115.0,115.0,115.0,115.0,1,5
0,0.010211101790739209,0.010211101790739209,0.010211101790739209,0.010211101790739209,67.0,67.0,67.0,67.0,0.006831075721968101,0.006831075721968101,0.006831075721968101,0.006831075721968101,0.00010426477912334271,0.00010426477912334271,0.00010426477912334271,0.00010426477912334271,1.3978306246485124,1.3978306246485124,1.3978306246485124,1.3978306246485124,102.0,102.0,102.0,102.0,1,3
0,0.011761654260044616,0.011761654260044616,0.011761654260044616,0.011761654260044616,74.0,74.0,74.0,74.0,0.008006534802848297,0.008006534802848297,0.008006534802848297,0.008006534802848297,0.00013827708755387676,0.00013827708755387676,0.00013827708755387676,0.00013827708755387676,1.7985496515513573,1.7985496515513573,1.7985496515513573,1.7985496515513573,102.0,102.0,102.0,102.0,1,6
0,0.06910628816211967,0.06910628816211967,0.06910628816211967,0.06910628816211967,78.0,78.0,78.0,78.0,0.05186120811971231,0.05186120811971231,0.05186120811971231,0.05186120811971231,0.004775237679665875,0.004775237679665875,0.004775237679665875,0.004775237679665875,12.196247225171447,12.196247225171447,12.196247225171447,12.196247225171447,110.0,110.0,110.0,110.0,1,5
0,0.006320025478118759,0.006320025478118759,0.006320025478118759,0.006320025478118759,59.0,59.0,59.0,59.0,0.004753649571423236,0.004753649571423236,0.004753649571423236,0.004753649571423236,3.9942334246859904e-05,3.9942334246859904e-05,3.9942334246859904e-05,3.9942334246859904e-05,0.8665880773200314,0.8665880773200314,0.8665880773200314,0.8665880773200314,90.0,90.0,90.0,90.0,1,4
0,0.024980969034909265,0.024980969034909265,0.024980969034909265,0.024980969034909265,67.0,67.0,67.0,67.0,0.01707903053791944,0.01707903053791944,0.01707903053791944,0.01707903053791944,0.0006240159908207883,0.0006240159908207883,0.0006240159908207883,0.0006240159908207883,3.5098965061848464,3.5098965061848464,3.5098965061848464,3.5098965061848464,95.0,95.0,95.0,95.0,1,2
0,0.008961600652960283,0.008961600652960283,0.008961600652960283,0.008961600652960283,61.0,61.0,61.0,61.0,0.0060780637159638775,0.0060780637159638775,0.0060780637159638775,0.0060780637159638775,8.030899776764532e-05,8.030899776764532e-05,8.030899776764532e-05,8.030899776764532e-05,1.2176330570197833,1.2176330570197833,1.2176330570197833,1.2176330570197833,95.0,95.0,95.0,95.0,1,3
0,0.005417892360537555,0.005417892360537555,0.005417892360537555,0.005417892360537555,64.0,64.0,64.0,64.0,0.004278172163978472,0.004278172163978472,0.004278172163978472,0.004278172163978472,2.9352881692658153e-05,2.9352881692658153e-05,2.9352881692658153e-05,2.9352881692658153e-05,0.8531314197689688,0.8531314197689688,0.8531314197689688,0.8531314197689688,105.0,105.0,105.0,105.0,1,6
0,0.023048596089206973,0.023048596089206973,0.023048596089206973,0.023048596089206973,77.0,77.0,77.0,77.0,0.017798901251388107,0.017798901251388107,0.017798901251388107,0.017798901251388107,0.0005311486976888935,0.0005311486976888935,0.0005311486976888935,0.0005311486976888935,4.1232839093367755,4.1232839093367755,4.1232839093367755,4.1232839093367755,112.0,112.0,112.0,112.0,1,1
0,0.01631981774567289,0.01631981774567289,0.01631981774567289,0.01631981774567289,67.0,67.0,67.0,67.0,0.01255458501724855,0.01255458501724855,0.01255458501724855,0.01255458501724855,0.0002662391780243136,0.0002662391780243136,0.0002662391780243136,0.0002662391780243136,2.3886301837610366,2.3886301837610366,2.3886301837610366,2.3886301837610366,92.0,92.0,92.0,92.0,1,2
0,0.019211575485882825,0.019211575485882825,0.019211575485882825,0.019211575485882825,76.0,76.0,76.0,76.0,0.015059653143105423,0.015059653143105423,0.015059653143105423,0.015059653143105423,0.00036908174429902053,0.00036908174429902053,0.00036908174429902053,0.00036908174429902053,3.4344108621959215,3.4344108621959215,3.4344108621959215,3.4344108621959215,108.0,108.0,108.0,108.0,1,1
0,0.0094869196327226,0.0094869196327226,0.0094869196327226,0.0094869196327226,64.0,64.0,64.0,64.0,0.007097976042862316,0.007097976042862316,0.007097976042862316,0.007097976042862316,8.984159713106803e-05,8.984159713106803e-05,8.984159713106803e-05,8.984159713106803e-05,1.4474070686095075,1.4474070686095075,1.4474070686095075,1.4474070686095075,105.0,105.0,105.0,105.0,1,6
0,0.004126116691415005,0.004126116691415005,0.004126116691415005,0.004126116691415005,53.0,53.0,53.0,53.0,0.0031521498846796936,0.0031521498846796936,0.0031521498846796936,0.0031521498846796936,1.7023446562641357e-05,1.7023446562641357e-05,1.7023446562641357e-05,1.7023446562641357e-05,0.5971298231006341,0.5971298231006341,0.5971298231006341,0.5971298231006341,110.0,110.0,110.0,110.0,1,4
0,0.008701047321845097,0.008701047321845097,0.008701047321845097,0.008701047321845097,66.0,66.0,66.0,66.0,0.00643899040166398,0.00643899040166398,0.00643899040166398,0.00643899040166398,7.569284891171116e-05,7.569284891171116e-05,7.569284891171116e-05,7.569284891171116e-05,1.4062139740810717,1.4062139740810717,1.4062139740810717,1.4062139740810717,109.0,109.0,109.0,109.0,1,3
0,0.07572787618596691,0.07572787618596691,0.07572787618596691,0.07572787618596691,73.0,73.0,73.0,73.0,0.0580331646683144,0.0580331646683144,0.0580331646683144,0.0580331646683144,0.005733877036553811,0.005733877036553811,0.005733877036553811,0.005733877036553811,13.78233169148022,13.78233169148022,13.78233169148022,13.78233169148022,97.0,97.0,97.0,97.0,1,5
0,0.013826582694178203,0.013826582694178203,0.013826582694178203,0.013826582694178203,61.0,61.0,61.0,61.0,0.008941597216162736,0.008941597216162736,0.008941597216162736,0.008941597216162736,0.0001911684683353976,0.0001911684683353976,0.0001911684683353976,0.0001911684683353976,1.789797345288358,1.789797345288358,1.789797345288358,1.789797345288358,103.0,103.0,103.0,103.0,1,4
0,0.018367364306021573,0.018367364306021573,0.018367364306021573,0.018367364306021573,66.0,66.0,66.0,66.0,0.013564791272159371,0.013564791272159371,0.013564791272159371,0.013564791272159371,0.0003373586622486541,0.0003373586622486541,0.0003373586622486541,0.0003373586622486541,2.8501559121677573,2.8501559121677573,2.8501559121677573,2.8501559121677573,105.0,105.0,105.0,105.0,1,6
0,0.023854837609975758,0.023854837609975758,0.023854837609975758,0.023854837609975758,57.0,57.0,57.0,57.0,0.0174752932025328,0.0174752932025328,0.0174752932025328,0.0174752932025328,0.0005688595269031289,0.0005688595269031289,0.0005688595269031289,0.0005688595269031289,3.4702065533588167,3.4702065533588167,3.4702065533588167,3.4702065533588167,103.0,103.0,103.0,103.0,1,3
0,0.07744713998018514,0.07744713998018514,0.07744713998018514,0.07744713998018514,80.0,80.0,80.0,80.0,0.06032805907784713,0.06032805907784713,0.06032805907784713,0.06032805907784713,0.005997843107972623,0.005997843107972623,0.005997843107972623,0.005997843107972623,14.001332102605808,14.001332102605808,14.001332102605808,14.001332102605808,102.0,102.0,102.0,102.0,1,5
0,0.01646759749341575,0.01646759749341575,0.01646759749341575,0.01646759749341575,67.0,67.0,67.0,67.0,0.012494095293923015,0.012494095293923015,0.012494095293923015,0.012494095293923015,0.000271128252712058,0.000271128252712058,0.000271128252712058,0.000271128252712058,2.390952190046221,2.390952190046221,2.390952190046221,2.390952190046221,80.0,80.0,80.0,80.0,1,2
0,0.017918629662212,0.017918629662212,0.017918629662212,0.017918629662212,93.0,93.0,93.0,93.0,0.013337461941963134,0.013337461941963134,0.013337461941963134,0.013337461941963134,0.0003210735786684962,0.0003210735786684962,0.0003210735786684962,0.0003210735786684962,3.3548446018627938,3.3548446018627938,3.3548446018627938,3.3548446018627938,115.0,115.0,115.0,115.0,1,1
0,0.019631715754611197,0.019631715754611197,0.019631715754611197,0.019631715754611197,58.0,58.0,58.0,58.0,0.014301802773056753,0.014301802773056753,0.014301802773056753,0.014301802773056753,0.00038540425275678214,0.00038540425275678214,0.00038540425275678214,0.00038540425275678214,2.71550027904821,2.71550027904821,2.71550027904821,2.71550027904821,93.0,93.0,93.0,93.0,1,2
0,0.017864186732294195,0.017864186732294195,0.017864186732294195,0.017864186732294195,67.0,67.0,67.0,67.0,0.013637657196449677,0.013637657196449677,0.013637657196449677,0.013637657196449677,0.000319032659403044,0.000319032659403044,0.000319032659403044,0.000319032659403044,3.0293814212684804,3.0293814212684804,3.0293814212684804,3.0293814212684804,105.0,105.0,105.0,105.0,1,1
0,0.011438272770734182,0.011438272770734182,0.011438272770734182,0.011438272770734182,67.0,67.0,67.0,67.0,0.008749564719026194,0.008749564719026194,0.008749564719026194,0.008749564719026194,0.0001308087947278962,0.0001308087947278962,0.0001308087947278962,0.0001308087947278962,1.795636772763308,1.795636772763308,1.795636772763308,1.795636772763308,97.0,97.0,97.0,97.0,1,6
0,0.054850286929541234,0.054850286929541234,0.054850286929541234,0.054850286929541234,83.0,83.0,83.0,83.0,0.042454624369143906,0.042454624369143906,0.042454624369143906,0.042454624369143906,0.0030085508980437193,0.0030085508980437193,0.0030085508980437193,0.0030085508980437193,10.422737418640391,10.422737418640391,10.422737418640391,10.422737418640391,108.0,108.0,108.0,108.0,1,5
0,0.011798378162276274,0.011798378162276274,0.011798378162276274,0.011798378162276274,59.0,59.0,59.0,59.0,0.008800215748517132,0.008800215748517132,0.008800215748517132,0.008800215748517132,0.00013910822491592013,0.00013910822491592013,0.00013910822491592013,0.00013910822491592013,1.5801183927590388,1.5801183927590388,1.5801183927590388,1.5801183927590388,95.0,95.0,95.0,95.0,1,3
0,0.005971616855672689,0.005971616855672689,0.005971616855672689,0.005971616855672689,70.0,70.0,70.0,70.0,0.004714124182670889,0.004714124182670889,0.004714124182670889,0.004714124182670889,3.5639678443141946e-05,3.5639678443141946e-05,3.5639678443141946e-05,3.5639678443141946e-05,0.8843362618341643,0.8843362618341643,0.8843362618341643,0.8843362618341643,97.0,97.0,97.0,97.0,1,4
0,0.011280933798835309,0.011280933798835309,0.011280933798835309,0.011280933798835309,60.0,60.0,60.0,60.0,0.007249670705013745,0.007249670705013745,0.007249670705013745,0.007249670705013745,0.0001272496372586242,0.0001272496372586242,0.0001272496372586242,0.0001272496372586242,1.5091291156541344,1.5091291156541344,1.5091291156541344,1.5091291156541344,92.0,92.0,92.0,92.0,1,4
0,0.012002814717819527,0.012002814717819527,0.012002814717819527,0.012002814717819527,63.0,63.0,63.0,63.0,0.008705384879408971,0.008705384879408971,0.008705384879408971,0.008705384879408971,0.00014406583212496423,0.00014406583212496423,0.00014406583212496423,0.00014406583212496423,1.711318025174422,1.711318025174422,1.711318025174422,1.711318025174422,102.0,102.0,102.0,102.0,1,6
0,0.051753362738575406,0.051753362738575406,0.051753362738575406,0.051753362738575406,76.0,76.0,76.0,76.0,0.04141505951718539,0.04141505951718539,0.04141505951718539,0.04141505951718539,0.002678410523315759,0.002678410523315759,0.002678410523315759,0.002678410523315759,9.570255702011693,9.570255702011693,9.570255702011693,9.570255702011693,103.0,103.0,103.0,103.0,1,5
0,0.016355472479542024,0.016355472479542024,0.016355472479542024,0.016355472479542024,62.0,62.0,62.0,62.0,0.011170298222912075,0.011170298222912075,0.011170298222912075,0.011170298222912075,0.00026750060962149255,0.00026750060962149255,0.00026750060962149255,0.00026750060962149255,2.2749567182884256,2.2749567182884256,2.2749567182884256,2.2749567182884256,90.0,90.0,90.0,90.0,1,3
0,0.019778649880824648,0.019778649880824648,0.019778649880824648,0.019778649880824648,71.0,71.0,71.0,71.0,0.01442108401699027,0.01442108401699027,0.01442108401699027,0.01442108401699027,0.00039116087286601557,0.00039116087286601557,0.00039116087286601557,0.00039116087286601557,3.095322233077459,3.095322233077459,3.095322233077459,3.095322233077459,90.0,90.0,90.0,90.0,1,2
0,0.024958977600824377,0.024958977600824377,0.024958977600824377,0.024958977600824377,81.0,81.0,81.0,81.0,0.019084054750038146,0.019084054750038146,0.019084054750038146,0.019084054750038146,0.0006227355105453409,0.0006227355105453409,0.0006227355105453409,0.0006227355105453409,4.462588604063896,4.462588604063896,4.462588604063896,4.462588604063896,102.0,102.0,102.0,102.0,1,1
0,0.011907295221127889,0.011907295221127889,0.011907295221127889,0.011907295221127889,70.0,70.0,70.0,70.0,0.008408032049149177,0.008408032049149177,0.008408032049149177,0.008408032049149177,0.00014178367649653244,0.00014178367649653244,0.00014178367649653244,0.00014178367649653244,1.843310985369194,1.843310985369194,1.843310985369194,1.843310985369194,111.0,111.0,111.0,111.0,1,6
0,0.028488081156232498,0.028488081156232498,0.028488081156232498,0.028488081156232498,63.0,63.0,63.0,63.0,0.021004138947831718,0.021004138947831718,0.021004138947831718,0.021004138947831718,0.0008114637347950174,0.0008114637347950174,0.0008114637347950174,0.0008114637347950174,4.311984647620752,4.311984647620752,4.311984647620752,4.311984647620752,88.0,88.0,88.0,88.0,1,2
0,0.07256973870878981,0.07256973870878981,0.07256973870878981,0.07256973870878981,66.0,66.0,66.0,66.0,0.055782112791393564,0.055782112791393564,0.055782112791393564,0.055782112791393564,0.005265764818626704,0.005265764818626704,0.005265764818626704,0.005265764818626704,13.01137681905732,13.01137681905732,13.01137681905732,13.01137681905732,95.0,95.0,95.0,95.0,1,5
0,0.03065730103298836,0.03065730103298836,0.03065730103298836,0.03065730103298836,77.0,77.0,77.0,77.0,0.022669823890179498,0.022669823890179498,0.022669823890179498,0.022669823890179498,0.0009397413202404691,0.0009397413202404691,0.0009397413202404691,0.0009397413202404691,5.567814614822479,5.567814614822479,5.567814614822479,5.567814614822479,108.0,108.0,108.0,108.0,1,1
0,0.009961400988120508,0.009961400988120508,0.009961400988120508,0.009961400988120508,56.0,56.0,56.0,56.0,0.00671489960781026,0.00671489960781026,0.00671489960781026,0.00671489960781026,9.919129446639493e-05,9.919129446639493e-05,9.919129446639493e-05,9.919129446639493e-05,1.3703127441066996,1.3703127441066996,1.3703127441066996,1.3703127441066996,107.0,107.0,107.0,107.0,1,4
0,0.021602427318510354,0.021602427318510354,0.021602427318510354,0.021602427318510354,65.0,65.0,65.0,65.0,0.015273365795320126,0.015273365795320126,0.015273365795320126,0.015273365795320126,0.0004666614711630276,0.0004666614711630276,0.0004666614711630276,0.0004666614711630276,3.141225246656015,3.141225246656015,3.141225246656015,3.141225246656015,104.0,104.0,104.0,104.0,1,3
0,0.023908336196181487,0.023908336196181487,0.023908336196181487,0.023908336196181487,68.0,68.0,68.0,68.0,0.017733972258136735,0.017733972258136735,0.017733972258136735,0.017733972258136735,0.0005715878600580595,0.0005715878600580595,0.0005715878600580595,0.0005715878600580595,3.600745518582772,3.600745518582772,3.600745518582772,3.600745518582772,87.0,87.0,87.0,87.0,1,2
0,0.026534406620804817,0.026534406620804817,0.026534406620804817,0.026534406620804817,80.0,80.0,80.0,80.0,0.021265497324922875,0.021265497324922875,0.021265497324922875,0.021265497324922875,0.0007039904120185295,0.0007039904120185295,0.0007039904120185295,0.0007039904120185295,5.226801630730463,5.226801630730463,5.226801630730463,5.226801630730463,122.0,122.0,122.0,122.0,1,1
0,0.05862343729887896,0.05862343729887896,0.05862343729887896,0.05862343729887896,77.0,77.0,77.0,77.0,0.046322393704003303,0.046322393704003303,0.046322393704003303,0.046322393704003303,0.0034367041768631305,0.0034367041768631305,0.0034367041768631305,0.0034367041768631305,10.466934862514824,10.466934862514824,10.466934862514824,10.466934862514824,102.0,102.0,102.0,102.0,1,5
0,0.008674712056031096,0.008674712056031096,0.008674712056031096,0.008674712056031096,59.0,59.0,59.0,59.0,0.0060210986086954655,0.0060210986086954655,0.0060210986086954655,0.0060210986086954655,7.524650116109548e-05,7.524650116109548e-05,7.524650116109548e-05,7.524650116109548e-05,1.1620361852283294,1.1620361852283294,1.1620361852283294,1.1620361852283294,106.0,106.0,106.0,106.0,1,4
0,0.015067952337545975,0.015067952337545975,0.015067952337545975,0.015067952337545975,73.0,73.0,73.0,73.0,0.011420463341288448,0.011420463341288448,0.011420463341288448,0.011420463341288448,0.00022700860762459306,0.00022700860762459306,0.00022700860762459306,0.00022700860762459306,2.615574407646612,2.615574407646612,2.615574407646612,2.615574407646612,103.0,103.0,103.0,103.0,1,6
0,0.011035542456932107,0.011035542456932107,0.011035542456932107,0.011035542456932107,70.0,70.0,70.0,70.0,0.007789969074261943,0.007789969074261943,0.007789969074261943,0.007789969074261943,0.00012178275598435175,0.00012178275598435175,0.00012178275598435175,0.00012178275598435175,1.6892078294480304,1.6892078294480304,1.6892078294480304,1.6892078294480304,98.0,98.0,98.0,98.0,1,3
0,0.009081388262008017,0.009081388262008017,0.009081388262008017,0.009081388262008017,67.0,67.0,67.0,67.0,0.00644112760147546,0.00644112760147546,0.00644112760147546,0.00644112760147546,8.243934294740385e-05,8.243934294740385e-05,8.243934294740385e-05,8.243934294740385e-05,1.3075262291980054,1.3075262291980054,1.3075262291980054,1.3075262291980054,118.0,118.0,118.0,118.0,1,4
0,0.0775540287417482,0.0775540287417482,0.0775540287417482,0.0775540287417482,74.0,74.0,74.0,74.0,0.05771991970367678,0.05771991970367678,0.05771991970367678,0.05771991970367678,0.006014555692240669,0.006014555692240669,0.006014555692240669,0.006014555692240669,13.541409673390845,13.541409673390845,13.541409673390845,13.541409673390845,99.0,99.0,99.0,99.0,1,5
0,0.027225263534417666,0.027225263534417666,0.027225263534417666,0.027225263534417666,58.0,58.0,58.0,58.0,0.019582250514267905,0.019582250514267905,0.019582250514267905,0.019582250514267905,0.0007411091786368844,0.0007411091786368844,0.0007411091786368844,0.0007411091786368844,3.980125138609235,3.980125138609235,3.980125138609235,3.980125138609235,88.0,88.0,88.0,88.0,1,2
0,0.011483065498204012,0.011483065498204012,0.011483065498204012,0.011483065498204012,65.0,65.0,65.0,65.0,0.00856820804834292,0.00856820804834292,0.00856820804834292,0.00856820804834292,0.0001318329369383355,0.0001318329369383355,0.0001318329369383355,0.0001318329369383355,1.7652212283278337,1.7652212283278337,1.7652212283278337,1.7652212283278337,84.0,84.0,84.0,84.0,1,3
0,0.0167916415044155,0.0167916415044155,0.0167916415044155,0.0167916415044155,62.0,62.0,62.0,62.0,0.012928511785621826,0.012928511785621826,0.012928511785621826,0.012928511785621826,0.0002819078786820784,0.0002819078786820784,0.0002819078786820784,0.0002819078786820784,2.6233782588151824,2.6233782588151824,2.6233782588151824,2.6233782588151824,100.0,100.0,100.0,100.0,1,6
0,0.028343667764163496,0.028343667764163496,0.028343667764163496,0.028343667764163496,81.0,81.0,81.0,81.0,0.02275990416870579,0.02275990416870579,0.02275990416870579,0.02275990416870579,0.00080336328568167,0.00080336328568167,0.00080336328568167,0.00080336328568167,5.3183220252267605,5.3183220252267605,5.3183220252267605,5.3183220252267605,102.0,102.0,102.0,102.0,1,1
0,0.032434305883786395,0.032434305883786395,0.032434305883786395,0.032434305883786395,84.0,84.0,84.0,84.0,0.02492039018356615,0.02492039018356615,0.02492039018356615,0.02492039018356615,0.0010519815644242565,0.0010519815644242565,0.0010519815644242565,0.0010519815644242565,6.307134099902716,6.307134099902716,6.307134099902716,6.307134099902716,125.0,125.0,125.0,125.0,1,1
0,0.060820523031094906,0.060820523031094906,0.060820523031094906,0.060820523031094906,85.0,85.0,85.0,85.0,0.04710818446255081,0.04710818446255081,0.04710818446255081,0.04710818446255081,0.0036991264735541486,0.0036991264735541486,0.0036991264735541486,0.0036991264735541486,11.09906344448984,11.09906344448984,11.09906344448984,11.09906344448984,106.0,106.0,106.0,106.0,1,5
0,0.01755342604078861,0.01755342604078861,0.01755342604078861,0.01755342604078861,69.0,69.0,69.0,69.0,0.01292248686982378,0.01292248686982378,0.01292248686982378,0.01292248686982378,0.00030786020785085325,0.00030786020785085325,0.00030786020785085325,0.00030786020785085325,2.576051340918408,2.576051340918408,2.576051340918408,2.576051340918408,105.0,105.0,105.0,105.0,1,6
0,0.015605069043905665,0.015605069043905665,0.015605069043905665,0.015605069043905665,68.0,68.0,68.0,68.0,0.012320518255640678,0.012320518255640678,0.012320518255640678,0.012320518255640678,0.00024333958590160124,0.00024333958590160124,0.00024333958590160124,0.00024333958590160124,2.4715596413178575,2.4715596413178575,2.4715596413178575,2.4715596413178575,110.0,110.0,110.0,110.0,1,2
0,0.006373911088370526,0.006373911088370526,0.006373911088370526,0.006373911088370526,62.0,62.0,62.0,62.0,0.004975053686437163,0.004975053686437163,0.004975053686437163,0.004975053686437163,4.061557965625842e-05,4.061557965625842e-05,4.061557965625842e-05,4.061557965625842e-05,1.041390346242639,1.041390346242639,1.041390346242639,1.041390346242639,121.0,121.0,121.0,121.0,1,4
0,0.022852274639587083,0.022852274639587083,0.022852274639587083,0.022852274639587083,69.0,69.0,69.0,69.0,0.016846727019059805,0.016846727019059805,0.016846727019059805,0.016846727019059805,0.0005221982820811758,0.0005221982820811758,0.0005221982820811758,0.0005221982820811758,3.580886096909523,3.580886096909523,3.580886096909523,3.580886096909523,86.0,86.0,86.0,86.0,1,3
0,0.014255170655138172,0.014255170655138172,0.014255170655138172,0.014255170655138172,62.0,62.0,62.0,62.0,0.00953798500800118,0.00953798500800118,0.00953798500800118,0.00953798500800118,0.0002031993622886577,0.0002031993622886577,0.0002031993622886577,0.0002031993622886577,2.0333665587389738,2.0333665587389738,2.0333665587389738,2.0333665587389738,114.0,114.0,114.0,114.0,1,4
0,0.053202564867434896,0.053202564867434896,0.053202564867434896,0.053202564867434896,81.0,81.0,81.0,81.0,0.042046352591275864,0.042046352591275864,0.042046352591275864,0.042046352591275864,0.0028301372625955667,0.0028301372625955667,0.0028301372625955667,0.0028301372625955667,10.033251183637674,10.033251183637674,10.033251183637674,10.033251183637674,117.0,117.0,117.0,117.0,1,5
0,0.022223359139990788,0.022223359139990788,0.022223359139990788,0.022223359139990788,85.0,85.0,85.0,85.0,0.01740901217471473,0.01740901217471473,0.01740901217471473,0.01740901217471473,0.0004938123510350188,0.0004938123510350188,0.0004938123510350188,0.0004938123510350188,4.111212405981057,4.111212405981057,4.111212405981057,4.111212405981057,111.0,111.0,111.0,111.0,1,1
0,0.022694582811281592,0.022694582811281592,0.022694582811281592,0.022694582811281592,74.0,74.0,74.0,74.0,0.01720518409499979,0.01720518409499979,0.01720518409499979,0.01720518409499979,0.0005145982351221878,0.0005145982351221878,0.0005145982351221878,0.0005145982351221878,3.7269985376297803,3.7269985376297803,3.7269985376297803,3.7269985376297803,99.0,99.0,99.0,99.0,1,2
0,0.017723943440308337,0.017723943440308337,0.017723943440308337,0.017723943440308337,58.0,58.0,58.0,58.0,0.01295270945547345,0.01295270945547345,0.01295270945547345,0.01295270945547345,0.0003141369574023429,0.0003141369574023429,0.0003141369574023429,0.0003141369574023429,2.5831855612574763,2.5831855612574763,2.5831855612574763,2.5831855612574763,87.0,87.0,87.0,87.0,1,3
0,0.01743668455527509,0.01743668455527509,0.01743668455527509,0.01743668455527509,64.0,64.0,64.0,64.0,0.013426543925061015,0.013426543925061015,0.013426543925061015,0.013426543925061015,0.00030383843764365814,0.00030383843764365814,0.00030383843764365814,0.00030383843764365814,2.7625801152224447,2.7625801152224447,2.7625801152224447,2.7625801152224447,99.0,99.0,99.0,99.0,1,6
0,0.019862627905450077,0.019862627905450077,0.019862627905450077,0.019862627905450077,65.0,65.0,65.0,65.0,0.015380518342694431,0.015380518342694431,0.015380518342694431,0.015380518342694431,0.0003944676753396005,0.0003944676753396005,0.0003944676753396005,0.0003944676753396005,2.89666662386873,2.89666662386873,2.89666662386873,2.89666662386873,97.0,97.0,97.0,97.0,1,6
0,0.022955608012299903,0.022955608012299903,0.022955608012299903,0.022955608012299903,82.0,82.0,82.0,82.0,0.018386989423170044,0.018386989423170044,0.018386989423170044,0.018386989423170044,0.0005269552481889179,0.0005269552481889179,0.0005269552481889179,0.0005269552481889179,4.259017795732396,4.259017795732396,4.259017795732396,4.259017795732396,101.0,101.0,101.0,101.0,1,1
0,0.050223110961686884,0.050223110961686884,0.050223110961686884,0.050223110961686884,87.0,87.0,87.0,87.0,0.03888636990024558,0.03888636990024558,0.03888636990024558,0.03888636990024558,0.0025222250937005698,0.0025222250937005698,0.0025222250937005698,0.0025222250937005698,9.832246201628063,9.832246201628063,9.832246201628063,9.832246201628063,118.0,118.0,118.0,118.0,1,5
0,0.01564776710947233,0.01564776710947233,0.01564776710947233,0.01564776710947233,54.0,54.0,54.0,54.0,0.011447072064220529,0.011447072064220529,0.011447072064220529,0.011447072064220529,0.00024478913839109863,0.00024478913839109863,0.00024478913839109863,0.00024478913839109863,2.1181070400122914,2.1181070400122914,2.1181070400122914,2.1181070400122914,107.0,107.0,107.0,107.0,1,2
0,0.004732222476518745,0.004732222476518745,0.004732222476518745,0.004732222476518745,54.0,54.0,54.0,54.0,0.0037533746583428744,0.0037533746583428744,0.0037533746583428744,0.0037533746583428744,2.2389015905633705e-05,2.2389015905633705e-05,2.2389015905633705e-05,2.2389015905633705e-05,0.7392201491953049,0.7392201491953049,0.7392201491953049,0.7392201491953049,103.0,103.0,103.0,103.0,1,4
0,0.007455540888383956,0.007455540888383956,0.007455540888383956,0.007455540888383956,73.0,73.0,73.0,73.0,0.005608427123312723,0.005608427123312723,0.005608427123312723,0.005608427123312723,5.5569080430339705e-05,5.5569080430339705e-05,5.5569080430339705e-05,5.5569080430339705e-05,1.2530957231835107,1.2530957231835107,1.2530957231835107,1.2530957231835107,102.0,102.0,102.0,102.0,1,3
0,0.008025403721791847,0.008025403721791847,0.008025403721791847,0.008025403721791847,63.0,63.0,63.0,63.0,0.006460759597265918,0.006460759597265918,0.006460759597265918,0.006460759597265918,6.440501262448085e-05,6.440501262448085e-05,6.440501262448085e-05,6.440501262448085e-05,1.2451343703855793,1.2451343703855793,1.2451343703855793,1.2451343703855793,105.0,105.0,105.0,105.0,1,3
0,0.010298999951034837,0.010298999951034837,0.010298999951034837,0.010298999951034837,70.0,70.0,70.0,70.0,0.008390161778197265,0.008390161778197265,0.008390161778197265,0.008390161778197265,0.0001060668228041858,0.0001060668228041858,0.0001060668228041858,0.0001060668228041858,1.7632842619817142,1.7632842619817142,1.7632842619817142,1.7632842619817142,100.0,100.0,100.0,100.0,1,6
0,0.01897793488721823,0.01897793488721823,0.01897793488721823,0.01897793488721823,59.0,59.0,59.0,59.0,0.013796107728346076,0.013796107728346076,0.013796107728346076,0.013796107728346076,0.000360072580204822,0.000360072580204822,0.000360072580204822,0.000360072580204822,2.8016558592870164,2.8016558592870164,2.8016558592870164,2.8016558592870164,82.0,82.0,82.0,82.0,1,2
0,0.005470769578334705,0.005470769578334705,0.005470769578334705,0.005470769578334705,68.0,68.0,68.0,68.0,0.004422976393861403,0.004422976393861403,0.004422976393861403,0.004422976393861403,2.9919719450387984e-05,2.9919719450387984e-05,2.9919719450387984e-05,2.9919719450387984e-05,0.930040039385343,0.930040039385343,0.930040039385343,0.930040039385343,110.0,110.0,110.0,110.0,1,4
0,0.020649647519319997,0.020649647519319997,0.020649647519319997,0.020649647519319997,80.0,80.0,80.0,80.0,0.01598685356181028,0.01598685356181028,0.01598685356181028,0.01598685356181028,0.0004263950480377586,0.0004263950480377586,0.0004263950480377586,0.0004263950480377586,3.9197713644807886,3.9197713644807886,3.9197713644807886,3.9197713644807886,113.0,113.0,113.0,113.0,1,1
0,0.042938340090337146,0.042938340090337146,0.042938340090337146,0.042938340090337146,68.0,68.0,68.0,68.0,0.03483349019039013,0.03483349019039013,0.03483349019039013,0.03483349019039013,0.0018435878866526856,0.0018435878866526856,0.0018435878866526856,0.0018435878866526856,7.2821961322181075,7.2821961322181075,7.2821961322181075,7.2821961322181075,97.0,97.0,97.0,97.0,1,5
0,0.015568988965411158,0.015568988965411158,0.015568988965411158,0.015568988965411158,63.0,63.0,63.0,63.0,0.011943690407906087,0.011943690407906087,0.011943690407906087,0.011943690407906087,0.0002423928519690105,0.0002423928519690105,0.0002423928519690105,0.0002423928519690105,2.4366379867250214,2.4366379867250214,2.4366379867250214,2.4366379867250214,100.0,100.0,100.0,100.0,1,6
0,0.015503163729264068,0.015503163729264068,0.015503163729264068,0.015503163729264068,66.0,66.0,66.0,66.0,0.01158104973880389,0.01158104973880389,0.01158104973880389,0.01158104973880389,0.00024026356273433976,0.00024026356273433976,0.00024026356273433976,0.00024026356273433976,2.2879735495683695,2.2879735495683695,2.2879735495683695,2.2879735495683695,93.0,93.0,93.0,93.0,1,2
0,0.01996131003801334,0.01996131003801334,0.01996131003801334,0.01996131003801334,76.0,76.0,76.0,76.0,0.01592817826477982,0.01592817826477982,0.01592817826477982,0.01592817826477982,0.00039845243987076214,0.00039845243987076214,0.00039845243987076214,0.00039845243987076214,3.5049873740309545,3.5049873740309545,3.5049873740309545,3.5049873740309545,95.0,95.0,95.0,95.0,1,1
0,0.006139898928378713,0.006139898928378713,0.006139898928378713,0.006139898928378713,53.0,53.0,53.0,53.0,0.004835849510070787,0.004835849510070787,0.004835849510070787,0.004835849510070787,3.769766952375345e-05,3.769766952375345e-05,3.769766952375345e-05,3.769766952375345e-05,0.9887344276247345,0.9887344276247345,0.9887344276247345,0.9887344276247345,104.0,104.0,104.0,104.0,1,4
0,0.04989747584510582,0.04989747584510582,0.04989747584510582,0.04989747584510582,74.0,74.0,74.0,74.0,0.0389058515956675,0.0389058515956675,0.0389058515956675,0.0389058515956675,0.0024897414724072654,0.0024897414724072654,0.0024897414724072654,0.0024897414724072654,9.010725538685875,9.010725538685875,9.010725538685875,9.010725538685875,98.0,98.0,98.0,98.0,1,5
0,0.009385407039637155,0.009385407039637155,0.009385407039637155,0.009385407039637155,70.0,70.0,70.0,70.0,0.007321261410322244,0.007321261410322244,0.007321261410322244,0.007321261410322244,8.807215733402441e-05,8.807215733402441e-05,8.807215733402441e-05,8.807215733402441e-05,1.534748238973311,1.534748238973311,1.534748238973311,1.534748238973311,89.0,89.0,89.0,89.0,1,3
0,0.005219373607963981,0.005219373607963981,0.005219373607963981,0.005219373607963981,58.0,58.0,58.0,58.0,0.00398598289082929,0.00398598289082929,0.00398598289082929,0.00398598289082929,2.722864488457517e-05,2.722864488457517e-05,2.722864488457517e-05,2.722864488457517e-05,0.8155043428158102,0.8155043428158102,0.8155043428158102,0.8155043428158102,120.0,120.0,120.0,120.0,1,4
0,0.019526457645822434,0.019526457645822434,0.019526457645822434,0.019526457645822434,87.0,87.0,87.0,87.0,0.014985551234096355,0.014985551234096355,0.014985551234096355,0.014985551234096355,0.00038116692836707213,0.00038116692836707213,0.00038116692836707213,0.00038116692836707213,3.584084416336453,3.584084416336453,3.584084416336453,3.584084416336453,110.0,110.0,110.0,110.0,1,1
0,0.018897398744789632,0.018897398744789632,0.018897398744789632,0.018897398744789632,68.0,68.0,68.0,68.0,0.012953426767495564,0.012953426767495564,0.012953426767495564,0.012953426767495564,0.00035707221770178867,0.00035707221770178867,0.00035707221770178867,0.00035707221770178867,2.706790868224507,2.706790868224507,2.706790868224507,2.706790868224507,92.0,92.0,92.0,92.0,1,2
0,0.044645549011709335,0.044645549011709335,0.044645549011709335,0.044645549011709335,79.0,79.0,79.0,79.0,0.03641663398764785,0.03641663398764785,0.03641663398764785,0.03641663398764785,0.0019928464323323404,0.0019928464323323404,0.0019928464323323404,0.0019928464323323404,8.191392822184255,8.191392822184255,8.191392822184255,8.191392822184255,109.0,109.0,109.0,109.0,1,5
0,0.01719969844888926,0.01719969844888926,0.01719969844888926,0.01719969844888926,68.0,68.0,68.0,68.0,0.01299276959882123,0.01299276959882123,0.01299276959882123,0.01299276959882123,0.0002957978193160453,0.0002957978193160453,0.0002957978193160453,0.0002957978193160453,2.7018867898836456,2.7018867898836456,2.7018867898836456,2.7018867898836456,91.0,91.0,91.0,91.0,1,6
0,0.006807229503145284,0.006807229503145284,0.006807229503145284,0.006807229503145284,62.0,62.0,62.0,62.0,0.005050350260367951,0.005050350260367951,0.005050350260367951,0.005050350260367951,4.633600587726161e-05,4.633600587726161e-05,4.633600587726161e-05,4.633600587726161e-05,1.060985999706325,1.060985999706325,1.060985999706325,1.060985999706325,99.0,99.0,99.0,99.0,1,3
0,0.04964093583259552,0.04964093583259552,0.04964093583259552,0.04964093583259552,80.0,80.0,80.0,80.0,0.039509504227213374,0.039509504227213374,0.039509504227213374,0.039509504227213374,0.002464186265244575,0.002464186265244575,0.002464186265244575,0.002464186265244575,9.467745619972753,9.467745619972753,9.467745619972753,9.467745619972753,103.0,103.0,103.0,103.0,1,5
0,0.005457604178903506,0.005457604178903506,0.005457604178903506,0.005457604178903506,55.0,55.0,55.0,55.0,0.004102983806041332,0.004102983806041332,0.004102983806041332,0.004102983806041332,2.978543023515475e-05,2.978543023515475e-05,2.978543023515475e-05,2.978543023515475e-05,0.8494006394808367,0.8494006394808367,0.8494006394808367,0.8494006394808367,111.0,111.0,111.0,111.0,1,4
0,0.018950119669552304,0.018950119669552304,0.018950119669552304,0.018950119669552304,62.0,62.0,62.0,62.0,0.013058328696913101,0.013058328696913101,0.013058328696913101,0.013058328696913101,0.0003590628378251862,0.0003590628378251862,0.0003590628378251862,0.0003590628378251862,2.5974009908748417,2.5974009908748417,2.5974009908748417,2.5974009908748417,92.0,92.0,92.0,92.0,1,2
0,0.013891464132920755,0.013891464132920755,0.013891464132920755,0.013891464132920755,63.0,63.0,63.0,63.0,0.010567750725531854,0.010567750725531854,0.010567750725531854,0.010567750725531854,0.00019296329790640196,0.00019296329790640196,0.00019296329790640196,0.00019296329790640196,2.1949690733499834,2.1949690733499834,2.1949690733499834,2.1949690733499834,104.0,104.0,104.0,104.0,1,6
0,0.014798126758522366,0.014798126758522366,0.014798126758522366,0.014798126758522366,75.0,75.0,75.0,75.0,0.01077672362290142,0.01077672362290142,0.01077672362290142,0.01077672362290142,0.00021895897775077596,0.00021895897775077596,0.00021895897775077596,0.00021895897775077596,2.2859101838719966,2.2859101838719966,2.2859101838719966,2.2859101838719966,94.0,94.0,94.0,94.0,1,3
0,0.022558997898488763,0.022558997898488763,0.022558997898488763,0.022558997898488763,77.0,77.0,77.0,77.0,0.016791577810637434,0.016791577810637434,0.016791577810637434,0.016791577810637434,0.0005085639305837383,0.0005085639305837383,0.0005085639305837383,0.0005085639305837383,3.929386943324923,3.929386943324923,3.929386943324923,3.929386943324923,103.0,103.0,103.0,103.0,1,1
0,0.0464855530941798,0.0464855530941798,0.0464855530941798,0.0464855530941798,63.0,63.0,63.0,63.0,0.03636209006306609,0.03636209006306609,0.03636209006306609,0.03636209006306609,0.002160883176998532,0.002160883176998532,0.002160883176998532,0.002160883176998532,7.90715983539693,7.90715983539693,7.90715983539693,7.90715983539693,94.0,94.0,94.0,94.0,1,5
0,0.03655845801092889,0.03655845801092889,0.03655845801092889,0.03655845801092889,69.0,69.0,69.0,69.0,0.02529221457679902,0.02529221457679902,0.02529221457679902,0.02529221457679902,0.0013364121672021876,0.0013364121672021876,0.0013364121672021876,0.0013364121672021876,5.539818622566905,5.539818622566905,5.539818622566905,5.539818622566905,93.0,93.0,93.0,93.0,1,2
0,0.01606501135293787,0.01606501135293787,0.01606501135293787,0.01606501135293787,70.0,70.0,70.0,70.0,0.011319140221492505,0.011319140221492505,0.011319140221492505,0.011319140221492505,0.0002580477981954641,0.0002580477981954641,0.0002580477981954641,0.0002580477981954641,2.212516489722848,2.212516489722848,2.212516489722848,2.212516489722848,91.0,91.0,91.0,91.0,1,6
0,0.017233017096871087,0.017233017096871087,0.017233017096871087,0.017233017096871087,84.0,84.0,84.0,84.0,0.01334262567264325,0.01334262567264325,0.01334262567264325,0.01334262567264325,0.00029681680415216964,0.00029681680415216964,0.00029681680415216964,0.00029681680415216964,3.2579058367304814,3.2579058367304814,3.2579058367304814,3.2579058367304814,120.0,120.0,120.0,120.0,1,1
0,0.005076626143638355,0.005076626143638355,0.005076626143638355,0.005076626143638355,50.0,50.0,50.0,50.0,0.004121271528122949,0.004121271528122949,0.004121271528122949,0.004121271528122949,2.5770322528962897e-05,2.5770322528962897e-05,2.5770322528962897e-05,2.5770322528962897e-05,0.6785088532203292,0.6785088532203292,0.6785088532203292,0.6785088532203292,100.0,100.0,100.0,100.0,1,4
0,0.00718471863626173,0.00718471863626173,0.00718471863626173,0.00718471863626173,60.0,60.0,60.0,60.0,0.005626516752899302,0.005626516752899302,0.005626516752899302,0.005626516752899302,5.1578869923816826e-05,5.1578869923816826e-05,5.1578869923816826e-05,5.1578869923816826e-05,0.9989569393092431,0.9989569393092431,0.9989569393092431,0.9989569393092431,92.0,92.0,92.0,92.0,1,3
0,0.004770578522995412,0.004770578522995412,0.004770578522995412,0.004770578522995412,50.0,50.0,50.0,50.0,0.00393565628557382,0.00393565628557382,0.00393565628557382,0.00393565628557382,2.2731089109185345e-05,2.2731089109185345e-05,2.2731089109185345e-05,2.2731089109185345e-05,0.6673250905861602,0.6673250905861602,0.6673250905861602,0.6673250905861602,105.0,105.0,105.0,105.0,1,4
0,0.007081222306016919,0.007081222306016919,0.007081222306016919,0.007081222306016919,59.0,59.0,59.0,59.0,0.005477908212298377,0.005477908212298377,0.005477908212298377,0.005477908212298377,5.014186906651594e-05,5.014186906651594e-05,5.014186906651594e-05,5.014186906651594e-05,0.9866491060876675,0.9866491060876675,0.9866491060876675,0.9866491060876675,101.0,101.0,101.0,101.0,1,3
0,0.009440329776629208,0.009440329776629208,0.009440329776629208,0.009440329776629208,64.0,64.0,64.0,64.0,0.007417333193004001,0.007417333193004001,0.007417333193004001,0.007417333193004001,8.911823709618671e-05,8.911823709618671e-05,8.911823709618671e-05,8.911823709618671e-05,1.4549340094920042,1.4549340094920042,1.4549340094920042,1.4549340094920042,98.0,98.0,98.0,98.0,1,6
0,0.021233276008535515,0.021233276008535515,0.021233276008535515,0.021233276008535515,70.0,70.0,70.0,70.0,0.0165869709400754,0.0165869709400754,0.0165869709400754,0.0165869709400754,0.0004508396879775159,0.0004508396879775159,0.0004508396879775159,0.0004508396879775159,3.6675469032633496,3.6675469032633496,3.6675469032633496,3.6675469032633496,96.0,96.0,96.0,96.0,1,1
0,0.04360637991128223,0.04360637991128223,0.04360637991128223,0.04360637991128223,73.0,73.0,73.0,73.0,0.03375022788680659,0.03375022788680659,0.03375022788680659,0.03375022788680659,0.0019014714673650612,0.0019014714673650612,0.0019014714673650612,0.0019014714673650612,7.407914108723589,7.407914108723589,7.407914108723589,7.407914108723589,107.0,107.0,107.0,107.0,1,5
0,0.016663685437104857,0.016663685437104857,0.016663685437104857,0.016663685437104857,64.0,64.0,64.0,64.0,0.012818300300745074,0.012818300300745074,0.012818300300745074,0.012818300300745074,0.0002776588328788723,0.0002776588328788723,0.0002776588328788723,0.0002776588328788723,2.67387241237871,2.67387241237871,2.67387241237871,2.67387241237871,88.0,88.0,88.0,88.0,1,2
0,0.019407173294310968,0.019407173294310968,0.019407173294310968,0.019407173294310968,56.0,56.0,56.0,56.0,0.01407336676730211,0.01407336676730211,0.01407336676730211,0.01407336676730211,0.00037661063782627166,0.00037661063782627166,0.00037661063782627166,0.00037661063782627166,2.645271942451785,2.645271942451785,2.645271942451785,2.645271942451785,96.0,96.0,96.0,96.0,1,2
0,0.00949618407849926,0.00949618407849926,0.00949618407849926,0.00949618407849926,54.0,54.0,54.0,54.0,0.007223833954656768,0.007223833954656768,0.007223833954656768,0.007223833954656768,9.017682563391876e-05,9.017682563391876e-05,9.017682563391876e-05,9.017682563391876e-05,1.2477190697861018,1.2477190697861018,1.2477190697861018,1.2477190697861018,98.0,98.0,98.0,98.0,1,3
0,0.013786415255615128,0.013786415255615128,0.013786415255615128,0.013786415255615128,74.0,74.0,74.0,74.0,0.010474231386143562,0.010474231386143562,0.010474231386143562,0.010474231386143562,0.0001900262478296198,0.0001900262478296198,0.0001900262478296198,0.0001900262478296198,2.3259775334544557,2.3259775334544557,2.3259775334544557,2.3259775334544557,91.0,91.0,91.0,91.0,1,1
0,0.011284634156143641,0.011284634156143641,0.011284634156143641,0.011284634156143641,66.0,66.0,66.0,66.0,0.008633853932522133,0.008633853932522133,0.008633853932522133,0.008633853932522133,0.00012734295883665234,0.00012734295883665234,0.00012734295883665234,0.00012734295883665234,1.8021385092063884,1.8021385092063884,1.8021385092063884,1.8021385092063884,108.0,108.0,108.0,108.0,1,6
0,0.04578395700439552,0.04578395700439552,0.04578395700439552,0.04578395700439552,76.0,76.0,76.0,76.0,0.03615891586686022,0.03615891586686022,0.03615891586686022,0.03615891586686022,0.0020958935050691355,0.0020958935050691355,0.0020958935050691355,0.0020958935050691355,8.468553914313608,8.468553914313608,8.468553914313608,8.468553914313608,114.0,114.0,114.0,114.0,1,5
0,0.004906873310091543,0.004906873310091543,0.004906873310091543,0.004906873310091543,62.0,62.0,62.0,62.0,0.00379873330596459,0.00379873330596459,0.00379873330596459,0.00379873330596459,2.4077186199524058e-05,2.4077186199524058e-05,2.4077186199524058e-05,2.4077186199524058e-05,0.6836842043080328,0.6836842043080328,0.6836842043080328,0.6836842043080328,100.0,100.0,100.0,100.0,1,4
0,0.0071467617925774565,0.0071467617925774565,0.0071467617925774565,0.0071467617925774565,63.0,63.0,63.0,63.0,0.005648213050907942,0.005648213050907942,0.005648213050907942,0.005648213050907942,5.1069513873516474e-05,5.1069513873516474e-05,5.1069513873516474e-05,5.1069513873516474e-05,1.0552217068371528,1.0552217068371528,1.0552217068371528,1.0552217068371528,98.0,98.0,98.0,98.0,1,3
0,0.010368640555695698,0.010368640555695698,0.010368640555695698,0.010368640555695698,79.0,79.0,79.0,79.0,0.008439483054325235,0.008439483054325235,0.008439483054325235,0.008439483054325235,0.00010750846263450343,0.00010750846263450343,0.00010750846263450343,0.00010750846263450343,1.8560600941953338,1.8560600941953338,1.8560600941953338,1.8560600941953338,92.0,92.0,92.0,92.0,1,6
0,0.005704185393630195,0.005704185393630195,0.005704185393630195,0.005704185393630195,64.0,64.0,64.0,64.0,0.004405370092347725,0.004405370092347725,0.004405370092347725,0.004405370092347725,3.253241142238372e-05,3.253241142238372e-05,3.253241142238372e-05,3.253241142238372e-05,0.819210304230801,0.819210304230801,0.819210304230801,0.819210304230801,106.0,106.0,106.0,106.0,1,4
0,0.04721682914776232,0.04721682914776232,0.04721682914776232,0.04721682914776232,71.0,71.0,71.0,71.0,0.0364691612819171,0.0364691612819171,0.0364691612819171,0.0364691612819171,0.002228652509164903,0.002228652509164903,0.002228652509164903,0.002228652509164903,8.113345391479537,8.113345391479537,8.113345391479537,8.113345391479537,106.0,106.0,106.0,106.0,1,5
0,0.036676345063749546,0.036676345063749546,0.036676345063749546,0.036676345063749546,52.0,52.0,52.0,52.0,0.029350790482795864,0.029350790482795864,0.029350790482795864,0.029350790482795864,0.0013451488276062455,0.0013451488276062455,0.0013451488276062455,0.0013451488276062455,4.218022667559842,4.218022667559842,4.218022667559842,4.218022667559842,96.0,96.0,96.0,96.0,1,1
0,0.01772292581093712,0.01772292581093712,0.01772292581093712,0.01772292581093712,70.0,70.0,70.0,70.0,0.013881309704064017,0.013881309704064017,0.013881309704064017,0.013881309704064017,0.000313616409668582,0.000313616409668582,0.000313616409668582,0.000313616409668582,2.71155393813135,2.71155393813135,2.71155393813135,2.71155393813135,88.0,88.0,88.0,88.0,1,2
0,0.021255640613398165,0.021255640613398165,0.021255640613398165,0.021255640613398165,72.0,72.0,72.0,72.0,0.015291710098830067,0.015291710098830067,0.015291710098830067,0.015291710098830067,0.00045166142038840444,0.00045166142038840444,0.00045166142038840444,0.00045166142038840444,3.3255308073133465,3.3255308073133465,3.3255308073133465,3.3255308073133465,103.0,103.0,103.0,103.0,1,2
0,0.017634775894855563,0.017634775894855563,0.017634775894855563,0.017634775894855563,62.0,62.0,62.0,62.0,0.012794352887280251,0.012794352887280251,0.012794352887280251,0.012794352887280251,0.00031095437585363994,0.00031095437585363994,0.00031095437585363994,0.00031095437585363994,2.725472651346827,2.725472651346827,2.725472651346827,2.725472651346827,97.0,97.0,97.0,97.0,1,6
0,0.02492351547594007,0.02492351547594007,0.02492351547594007,0.02492351547594007,61.0,61.0,61.0,61.0,0.020109616888544676,0.020109616888544676,0.020109616888544676,0.020109616888544676,0.0006210735148843139,0.0006210735148843139,0.0006210735148843139,0.0006210735148843139,4.212420058340792,4.212420058340792,4.212420058340792,4.212420058340792,109.0,109.0,109.0,109.0,1,1
0,0.009550751254478655,0.009550751254478655,0.009550751254478655,0.009550751254478655,68.0,68.0,68.0,68.0,0.007181734162978845,0.007181734162978845,0.007181734162978845,0.007181734162978845,9.12168490861299e-05,9.12168490861299e-05,9.12168490861299e-05,9.12168490861299e-05,1.431541266919768,1.431541266919768,1.431541266919768,1.431541266919768,85.0,85.0,85.0,85.0,1,3
0,0.04500085243747046,0.04500085243747046,0.04500085243747046,0.04500085243747046,67.0,67.0,67.0,67.0,0.03585126299220447,0.03585126299220447,0.03585126299220447,0.03585126299220447,0.0020247730681357207,0.0020247730681357207,0.0020247730681357207,0.0020247730681357207,7.444903411072103,7.444903411072103,7.444903411072103,7.444903411072103,90.0,90.0,90.0,90.0,1,5
0,0.0050199685820781935,0.0050199685820781935,0.0050199685820781935,0.0050199685820781935,61.0,61.0,61.0,61.0,0.003926043497607525,0.003926043497607525,0.003926043497607525,0.003926043497607525,2.5198857197877928e-05,2.5198857197877928e-05,2.5198857197877928e-05,2.5198857197877928e-05,0.7573265057885927,0.7573265057885927,0.7573265057885927,0.7573265057885927,112.0,112.0,112.0,112.0,1,4
0,0.026116763686297464,0.026116763686297464,0.026116763686297464,0.026116763686297464,88.0,88.0,88.0,88.0,0.01988125393932533,0.01988125393932533,0.01988125393932533,0.01988125393932533,0.0006814845134678044,0.0006814845134678044,0.0006814845134678044,0.0006814845134678044,4.562247403109155,4.562247403109155,4.562247403109155,4.562247403109155,115.0,115.0,115.0,115.0,1,1
0,0.01037708618035582,0.01037708618035582,0.01037708618035582,0.01037708618035582,88.0,88.0,88.0,88.0,0.008131842070763421,0.008131842070763421,0.008131842070763421,0.008131842070763421,0.0001076430694729347,0.0001076430694729347,0.0001076430694729347,0.0001076430694729347,1.8744902692418526,1.8744902692418526,1.8744902692418526,1.8744902692418526,119.0,119.0,119.0,119.0,1,6
0,0.04647639393358005,0.04647639393358005,0.04647639393358005,0.04647639393358005,77.0,77.0,77.0,77.0,0.035667116222993143,0.035667116222993143,0.035667116222993143,0.035667116222993143,0.0021600551738539483,0.0021600551738539483,0.0021600551738539483,0.0021600551738539483,7.617520448567652,7.617520448567652,7.617520448567652,7.617520448567652,105.0,105.0,105.0,105.0,1,5
0,0.004669084984966041,0.004669084984966041,0.004669084984966041,0.004669084984966041,52.0,52.0,52.0,52.0,0.0037818689489491453,0.0037818689489491453,0.0037818689489491453,0.0037818689489491453,2.1792419536766192e-05,2.1792419536766192e-05,2.1792419536766192e-05,2.1792419536766192e-05,0.6506067255730588,0.6506067255730588,0.6506067255730588,0.6506067255730588,103.0,103.0,103.0,103.0,1,4
0,0.013483373127680645,0.013483373127680645,0.013483373127680645,0.013483373127680645,60.0,60.0,60.0,60.0,0.009946549310702161,0.009946549310702161,0.009946549310702161,0.009946549310702161,0.00018166881289844467,0.00018166881289844467,0.00018166881289844467,0.00018166881289844467,1.9746464072192922,1.9746464072192922,1.9746464072192922,1.9746464072192922,95.0,95.0,95.0,95.0,1,2
0,0.00621556767710063,0.00621556767710063,0.00621556767710063,0.00621556767710063,55.0,55.0,55.0,55.0,0.005060194710524354,0.005060194710524354,0.005060194710524354,0.005060194710524354,3.858032719664516e-05,3.858032719664516e-05,3.858032719664516e-05,3.858032719664516e-05,0.852369020655942,0.852369020655942,0.852369020655942,0.852369020655942,90.0,90.0,90.0,90.0,1,3
0,0.004998950696298406,0.004998950696298406,0.004998950696298406,0.004998950696298406,46.0,46.0,46.0,46.0,0.0039650163891614045,0.0039650163891614045,0.0039650163891614045,0.0039650163891614045,2.4986537854109298e-05,2.4986537854109298e-05,2.4986537854109298e-05,2.4986537854109298e-05,0.6935492294018766,0.6935492294018766,0.6935492294018766,0.6935492294018766,100.0,100.0,100.0,100.0,1,4
0,0.02068863242203138,0.02068863242203138,0.02068863242203138,0.02068863242203138,64.0,64.0,64.0,64.0,0.014593528496709664,0.014593528496709664,0.014593528496709664,0.014593528496709664,0.0004280112937283888,0.0004280112937283888,0.0004280112937283888,0.0004280112937283888,2.9827967016789123,2.9827967016789123,2.9827967016789123,2.9827967016789123,94.0,94.0,94.0,94.0,1,2
0,0.027972684192060046,0.027972684192060046,0.027972684192060046,0.027972684192060046,68.0,68.0,68.0,68.0,0.022649826398820325,0.022649826398820325,0.022649826398820325,0.022649826398820325,0.0007821446949940201,0.0007821446949940201,0.0007821446949940201,0.0007821446949940201,4.7839656335741205,4.7839656335741205,4.7839656335741205,4.7839656335741205,111.0,111.0,111.0,111.0,1,1
0,0.010696763807612463,0.010696763807612463,0.010696763807612463,0.010696763807612463,61.0,61.0,61.0,61.0,0.008582758173318833,0.008582758173318833,0.008582758173318833,0.008582758173318833,0.00011441471738347151,0.00011441471738347151,0.00011441471738347151,0.00011441471738347151,1.7509543902576554,1.7509543902576554,1.7509543902576554,1.7509543902576554,95.0,95.0,95.0,95.0,1,6
0,0.009904491044228822,0.009904491044228822,0.009904491044228822,0.009904491044228822,58.0,58.0,58.0,58.0,0.007284589155909443,0.007284589155909443,0.007284589155909443,0.007284589155909443,9.809882076358783e-05,9.809882076358783e-05,9.809882076358783e-05,9.809882076358783e-05,1.425527576878906,1.425527576878906,1.425527576878906,1.425527576878906,91.0,91.0,91.0,91.0,1,3
0,0.04273359014380702,0.04273359014380702,0.04273359014380702,0.04273359014380702,74.0,74.0,74.0,74.0,0.0341460204228094,0.0341460204228094,0.0341460204228094,0.0341460204228094,0.0018261166415940394,0.0018261166415940394,0.0018261166415940394,0.0018261166415940394,7.869110912910204,7.869110912910204,7.869110912910204,7.869110912910204,101.0,101.0,101.0,101.0,1,5
0,0.010816851140448974,0.010816851140448974,0.010816851140448974,0.010816851140448974,66.0,66.0,66.0,66.0,0.008475579384515345,0.008475579384515345,0.008475579384515345,0.008475579384515345,0.00011700335643972285,0.00011700335643972285,0.00011700335643972285,0.00011700335643972285,1.7375554961521091,1.7375554961521091,1.7375554961521091,1.7375554961521091,112.0,112.0,112.0,112.0,1,6
0,0.005062658865630473,0.005062658865630473,0.005062658865630473,0.005062658865630473,58.0,58.0,58.0,58.0,0.003985330301016569,0.003985330301016569,0.003985330301016569,0.003985330301016569,2.5626658244787e-05,2.5626658244787e-05,2.5626658244787e-05,2.5626658244787e-05,0.7569807339993404,0.7569807339993404,0.7569807339993404,0.7569807339993404,103.0,103.0,103.0,103.0,1,4
0,0.005216319870737323,0.005216319870737323,0.005216319870737323,0.005216319870737323,62.0,62.0,62.0,62.0,0.004135716815634181,0.004135716815634181,0.004135716815634181,0.004135716815634181,2.72075477376449e-05,2.72075477376449e-05,2.72075477376449e-05,2.72075477376449e-05,0.7754744569473069,0.7754744569473069,0.7754744569473069,0.7754744569473069,108.0,108.0,108.0,108.0,1,3
0,0.024562042131937165,0.024562042131937165,0.024562042131937165,0.024562042131937165,47.0,47.0,47.0,47.0,0.0197034157642278,0.0197034157642278,0.0197034157642278,0.0197034157642278,0.000603220327936815,0.000603220327936815,0.000603220327936815,0.000603220327936815,3.1647388232242477,3.1647388232242477,3.1647388232242477,3.1647388232242477,110.0,110.0,110.0,110.0,1,1
0,0.03242386920343072,0.03242386920343072,0.03242386920343072,0.03242386920343072,75.0,75.0,75.0,75.0,0.025349764468195427,0.025349764468195427,0.025349764468195427,0.025349764468195427,0.0010511578784104057,0.0010511578784104057,0.0010511578784104057,0.0010511578784104057,5.779357700893408,5.779357700893408,5.779357700893408,5.779357700893408,101.0,101.0,101.0,101.0,1,5
0,0.011714590841991031,0.011714590841991031,0.011714590841991031,0.011714590841991031,53.0,53.0,53.0,53.0,0.009373443059446391,0.009373443059446391,0.009373443059446391,0.009373443059446391,0.0001371936437641959,0.0001371936437641959,0.0001371936437641959,0.0001371936437641959,1.7375459134245386,1.7375459134245386,1.7375459134245386,1.7375459134245386,87.0,87.0,87.0,87.0,1,2
0,0.019577311554292796,0.019577311554292796,0.019577311554292796,0.019577311554292796,66.0,66.0,66.0,66.0,0.01394417206843091,0.01394417206843091,0.01394417206843091,0.01394417206843091,0.00038325622847784597,0.00038325622847784597,0.00038325622847784597,0.00038325622847784597,2.905763601637444,2.905763601637444,2.905763601637444,2.905763601637444,87.0,87.0,87.0,87.0,1,2
0,0.014509842310912286,0.014509842310912286,0.014509842310912286,0.014509842310912286,56.0,56.0,56.0,56.0,0.0111995006743046,0.0111995006743046,0.0111995006743046,0.0111995006743046,0.00020928876321442993,0.00020928876321442993,0.00020928876321442993,0.00020928876321442993,2.044295871730617,2.044295871730617,2.044295871730617,2.044295871730617,90.0,90.0,90.0,90.0,1,1
0,0.0047389533004302785,0.0047389533004302785,0.0047389533004302785,0.0047389533004302785,48.0,48.0,48.0,48.0,0.003883660013887412,0.003883660013887412,0.003883660013887412,0.003883660013887412,2.238599059821313e-05,2.238599059821313e-05,2.238599059821313e-05,2.238599059821313e-05,0.6205811098938532,0.6205811098938532,0.6205811098938532,0.6205811098938532,106.0,106.0,106.0,106.0,1,4
0,0.011434114375089075,0.011434114375089075,0.011434114375089075,0.011434114375089075,72.0,72.0,72.0,72.0,0.008997980256754157,0.008997980256754157,0.008997980256754157,0.008997980256754157,0.0001306781640523598,0.0001306781640523598,0.0001306781640523598,0.0001306781640523598,1.6827624879161074,1.6827624879161074,1.6827624879161074,1.6827624879161074,101.0,101.0,101.0,101.0,1,6
0,0.005380704916191291,0.005380704916191291,0.005380704916191291,0.005380704916191291,59.0,59.0,59.0,59.0,0.004109167101609914,0.004109167101609914,0.004109167101609914,0.004109167101609914,2.8951930923145232e-05,2.8951930923145232e-05,2.8951930923145232e-05,2.8951930923145232e-05,0.7879710145376349,0.7879710145376349,0.7879710145376349,0.7879710145376349,108.0,108.0,108.0,108.0,1,3
0,0.052808779458109356,0.052808779458109356,0.052808779458109356,0.052808779458109356,80.0,80.0,80.0,80.0,0.04267542941317038,0.04267542941317038,0.04267542941317038,0.04267542941317038,0.002788621096702978,0.002788621096702978,0.002788621096702978,0.002788621096702978,9.933139851112202,9.933139851112202,9.933139851112202,9.933139851112202,107.0,107.0,107.0,107.0,1,5
0,0.016104055366327013,0.016104055366327013,0.016104055366327013,0.016104055366327013,78.0,78.0,78.0,78.0,0.01189036664185047,0.01189036664185047,0.01189036664185047,0.01189036664185047,0.00025930069133801506,0.00025930069133801506,0.00025930069133801506,0.00025930069133801506,2.5669893918366364,2.5669893918366364,2.5669893918366364,2.5669893918366364,112.0,112.0,112.0,112.0,1,6
0,0.027245219944485016,0.027245219944485016,0.027245219944485016,0.027245219944485016,73.0,73.0,73.0,73.0,0.020973521048336004,0.020973521048336004,0.020973521048336004,0.020973521048336004,0.0007418384651849925,0.0007418384651849925,0.0007418384651849925,0.0007418384651849925,4.63953199149657,4.63953199149657,4.63953199149657,4.63953199149657,108.0,108.0,108.0,108.0,1,1
0,0.038601769351962266,0.038601769351962266,0.038601769351962266,0.038601769351962266,73.0,73.0,73.0,73.0,0.029670183224605004,0.029670183224605004,0.029670183224605004,0.029670183224605004,0.0014898525111437244,0.0014898525111437244,0.0014898525111437244,0.0014898525111437244,6.271138530632339,6.271138530632339,6.271138530632339,6.271138530632339,100.0,100.0,100.0,100.0,1,5
0,0.02110015725201575,0.02110015725201575,0.02110015725201575,0.02110015725201575,52.0,52.0,52.0,52.0,0.015240140219845827,0.015240140219845827,0.015240140219845827,0.015240140219845827,0.0004452134893774518,0.0004452134893774518,0.0004452134893774518,0.0004452134893774518,2.826904094794763,2.826904094794763,2.826904094794763,2.826904094794763,82.0,82.0,82.0,82.0,1,2
0,0.004793665365083977,0.004793665365083977,0.004793665365083977,0.004793665365083977,64.0,64.0,64.0,64.0,0.004011181386388161,0.004011181386388161,0.004011181386388161,0.004011181386388161,2.2935550278473334e-05,2.2935550278473334e-05,2.2935550278473334e-05,2.2935550278473334e-05,0.6555091147086826,0.6555091147086826,0.6555091147086826,0.6555091147086826,105.0,105.0,105.0,105.0,1,4
0,0.020577820623560658,0.020577820623560658,0.020577820623560658,0.020577820623560658,61.0,61.0,61.0,61.0,0.014215509538206463,0.014215509538206463,0.014215509538206463,0.014215509538206463,0.0004234178098235761,0.0004234178098235761,0.0004234178098235761,0.0004234178098235761,2.795489023639276,2.795489023639276,2.795489023639276,2.795489023639276,81.0,81.0,81.0,81.0,1,3
0,0.0027970951300129317,0.0027970951300129317,0.0027970951300129317,0.0027970951300129317,50.0,50.0,50.0,50.0,0.002258091057845753,0.002258091057845753,0.002258091057845753,0.002258091057845753,7.822394595655686e-06,7.822394595655686e-06,7.822394595655686e-06,7.822394595655686e-06,0.3651823102095314,0.3651823102095314,0.3651823102095314,0.3651823102095314,111.0,111.0,111.0,111.0,1,3
0,0.003497133438504425,0.003497133438504425,0.003497133438504425,0.003497133438504425,63.0,63.0,63.0,63.0,0.0026873215414044394,0.0026873215414044394,0.0026873215414044394,0.0026873215414044394,1.222923752102853e-05,1.222923752102853e-05,1.222923752102853e-05,1.222923752102853e-05,0.548301880781604,0.548301880781604,0.548301880781604,0.548301880781604,108.0,108.0,108.0,108.0,1,4
0,0.008859864079413129,0.008859864079413129,0.008859864079413129,0.008859864079413129,70.0,70.0,70.0,70.0,0.007064216460777417,0.007064216460777417,0.007064216460777417,0.007064216460777417,7.84966909007556e-05,7.84966909007556e-05,7.84966909007556e-05,7.84966909007556e-05,1.4978799674162433,1.4978799674162433,1.4978799674162433,1.4978799674162433,89.0,89.0,89.0,89.0,1,6
0,0.007541571765260253,0.007541571765260253,0.007541571765260253,0.007541571765260253,67.0,67.0,67.0,67.0,0.005448902598015619,0.005448902598015619,0.005448902598015619,0.005448902598015619,5.6858944167165366e-05,5.6858944167165366e-05,5.6858944167165366e-05,5.6858944167165366e-05,1.0541728116621982,1.0541728116621982,1.0541728116621982,1.0541728116621982,91.0,91.0,91.0,91.0,1,2
0,0.005292367612446452,0.005292367612446452,0.005292367612446452,0.005292367612446452,66.0,66.0,66.0,66.0,0.004115450926310802,0.004115450926310802,0.004115450926310802,0.004115450926310802,2.8008912728055123e-05,2.8008912728055123e-05,2.8008912728055123e-05,2.8008912728055123e-05,0.9616265319223938,0.9616265319223938,0.9616265319223938,0.9616265319223938,122.0,122.0,122.0,122.0,1,1
0,0.011031017834155058,0.011031017834155058,0.011031017834155058,0.011031017834155058,71.0,71.0,71.0,71.0,0.008748921423361892,0.008748921423361892,0.008748921423361892,0.008748921423361892,0.0001216798198793514,0.0001216798198793514,0.0001216798198793514,0.0001216798198793514,1.741208296065394,1.741208296065394,1.741208296065394,1.741208296065394,88.0,88.0,88.0,88.0,1,5
0,0.00752610370010838,0.00752610370010838,0.00752610370010838,0.00752610370010838,64.0,64.0,64.0,64.0,0.005929161811292214,0.005929161811292214,0.005929161811292214,0.005929161811292214,5.6640312214230116e-05,5.6640312214230116e-05,5.6640312214230116e-05,5.6640312214230116e-05,1.1702798850412448,1.1702798850412448,1.1702798850412448,1.1702798850412448,97.0,97.0,97.0,97.0,1,5
0,0.0035929403373862255,0.0035929403373862255,0.0035929403373862255,0.0035929403373862255,72.0,72.0,72.0,72.0,0.002927838966892268,0.002927838966892268,0.002927838966892268,0.002927838966892268,1.2906364985900115e-05,1.2906364985900115e-05,1.2906364985900115e-05,1.2906364985900115e-05,0.5854515904070079,0.5854515904070079,0.5854515904070079,0.5854515904070079,108.0,108.0,108.0,108.0,1,6
0,0.004123419269991172,0.004123419269991172,0.004123419269991172,0.004123419269991172,63.0,63.0,63.0,63.0,0.0031183309058315607,0.0031183309058315607,0.0031183309058315607,0.0031183309058315607,1.6994220979140738e-05,1.6994220979140738e-05,1.6994220979140738e-05,1.6994220979140738e-05,0.5790041668549235,0.5790041668549235,0.5790041668549235,0.5790041668549235,90.0,90.0,90.0,90.0,1,2
0,0.005177807823892603,0.005177807823892603,0.005177807823892603,0.005177807823892603,91.0,91.0,91.0,91.0,0.004023895254394441,0.004023895254394441,0.004023895254394441,0.004023895254394441,2.6780059326299764e-05,2.6780059326299764e-05,2.6780059326299764e-05,2.6780059326299764e-05,0.9777499410963355,0.9777499410963355,0.9777499410963355,0.9777499410963355,114.0,114.0,114.0,114.0,1,1
0,0.0030782935530577465,0.0030782935530577465,0.0030782935530577465,0.0030782935530577465,56.0,56.0,56.0,56.0,0.002400943010761064,0.002400943010761064,0.002400943010761064,0.002400943010761064,9.475049033536242e-06,9.475049033536242e-06,9.475049033536242e-06,9.475049033536242e-06,0.444446738093795,0.444446738093795,0.444446738093795,0.444446738093795,104.0,104.0,104.0,104.0,1,4
0,0.002932515441771764,0.002932515441771764,0.002932515441771764,0.002932515441771764,58.0,58.0,58.0,58.0,0.002295650057136811,0.002295650057136811,0.002295650057136811,0.002295650057136811,8.573103149378157e-06,8.573103149378157e-06,8.573103149378157e-06,8.573103149378157e-06,0.4236246826559157,0.4236246826559157,0.4236246826559157,0.4236246826559157,99.0,99.0,99.0,99.0,1,3
0,0.005749188761969408,0.005749188761969408,0.005749188761969408,0.005749188761969408,59.0,59.0,59.0,59.0,0.004117349361219678,0.004117349361219678,0.004117349361219678,0.004117349361219678,3.30287108086521e-05,3.30287108086521e-05,3.30287108086521e-05,3.30287108086521e-05,0.7955125604345663,0.7955125604345663,0.7955125604345663,0.7955125604345663,87.0,87.0,87.0,87.0,1,4
0,0.004550117614092105,0.004550117614092105,0.004550117614092105,0.004550117614092105,71.0,71.0,71.0,71.0,0.00345935509287169,0.00345935509287169,0.00345935509287169,0.00345935509287169,2.0703570296408976e-05,2.0703570296408976e-05,2.0703570296408976e-05,2.0703570296408976e-05,0.7955779401760636,0.7955779401760636,0.7955779401760636,0.7955779401760636,114.0,114.0,114.0,114.0,1,1
0,0.0063006508787608224,0.0063006508787608224,0.0063006508787608224,0.0063006508787608224,72.0,72.0,72.0,72.0,0.004767036029739927,0.004767036029739927,0.004767036029739927,0.004767036029739927,3.969550789626103e-05,3.969550789626103e-05,3.969550789626103e-05,3.969550789626103e-05,0.9761488595209877,0.9761488595209877,0.9761488595209877,0.9761488595209877,103.0,103.0,103.0,103.0,1,5
0,0.003741589949790857,0.003741589949790857,0.003741589949790857,0.003741589949790857,61.0,61.0,61.0,61.0,0.0028824055454592643,0.0028824055454592643,0.0028824055454592643,0.0028824055454592643,1.3999424590658416e-05,1.3999424590658416e-05,1.3999424590658416e-05,1.3999424590658416e-05,0.5618341349562346,0.5618341349562346,0.5618341349562346,0.5618341349562346,93.0,93.0,93.0,93.0,1,2
0,0.0037434675725508955,0.0037434675725508955,0.0037434675725508955,0.0037434675725508955,61.0,61.0,61.0,61.0,0.002979482334497132,0.002979482334497132,0.002979482334497132,0.002979482334497132,1.4013519027526388e-05,1.4013519027526388e-05,1.4013519027526388e-05,1.4013519027526388e-05,0.5925533885388039,0.5925533885388039,0.5925533885388039,0.5925533885388039,96.0,96.0,96.0,96.0,1,6
0,0.002936815263716131,0.002936815263716131,0.002936815263716131,0.002936815263716131,57.0,57.0,57.0,57.0,0.0023782963746620213,0.0023782963746620213,0.0023782963746620213,0.0023782963746620213,8.618705171752244e-06,8.618705171752244e-06,8.618705171752244e-06,8.618705171752244e-06,0.4299143995494713,0.4299143995494713,0.4299143995494713,0.4299143995494713,96.0,96.0,96.0,96.0,1,3
0,0.0029363367032323195,0.0029363367032323195,0.0029363367032323195,0.0029363367032323195,58.0,58.0,58.0,58.0,0.002356427678305738,0.002356427678305738,0.002356427678305738,0.002356427678305738,8.621108857674354e-06,8.621108857674354e-06,8.621108857674354e-06,8.621108857674354e-06,0.43062477501706076,0.43062477501706076,0.43062477501706076,0.43062477501706076,105.0,105.0,105.0,105.0,1,3
0,0.004768242407172233,0.004768242407172233,0.004768242407172233,0.004768242407172233,78.0,78.0,78.0,78.0,0.0036658132684888912,0.0036658132684888912,0.0036658132684888912,0.0036658132684888912,2.272635438527902e-05,2.272635438527902e-05,2.272635438527902e-05,2.272635438527902e-05,0.8306206164187938,0.8306206164187938,0.8306206164187938,0.8306206164187938,117.0,117.0,117.0,117.0,1,6
0,0.003332269133421196,0.003332269133421196,0.003332269133421196,0.003332269133421196,59.0,59.0,59.0,59.0,0.002636422474409725,0.002636422474409725,0.002636422474409725,0.002636422474409725,1.1088553942698673e-05,1.1088553942698673e-05,1.1088553942698673e-05,1.1088553942698673e-05,0.4784900444608079,0.4784900444608079,0.4784900444608079,0.4784900444608079,93.0,93.0,93.0,93.0,1,4
0,0.00815887710437332,0.00815887710437332,0.00815887710437332,0.00815887710437332,68.0,68.0,68.0,68.0,0.006332384354969762,0.006332384354969762,0.006332384354969762,0.006332384354969762,6.656725881663027e-05,6.656725881663027e-05,6.656725881663027e-05,6.656725881663027e-05,1.3242249689089909,1.3242249689089909,1.3242249689089909,1.3242249689089909,90.0,90.0,90.0,90.0,1,5
0,0.005103180497400355,0.005103180497400355,0.005103180497400355,0.005103180497400355,83.0,83.0,83.0,83.0,0.004055457250258569,0.004055457250258569,0.004055457250258569,0.004055457250258569,2.6006866782643722e-05,2.6006866782643722e-05,2.6006866782643722e-05,2.6006866782643722e-05,0.9060523804532783,0.9060523804532783,0.9060523804532783,0.9060523804532783,108.0,108.0,108.0,108.0,1,1
0,0.0033804282807794635,0.0033804282807794635,0.0033804282807794635,0.0033804282807794635,55.0,55.0,55.0,55.0,0.0024915927728128783,0.0024915927728128783,0.0024915927728128783,0.0024915927728128783,1.1426774657302906e-05,1.1426774657302906e-05,1.1426774657302906e-05,1.1426774657302906e-05,0.4242212897593987,0.4242212897593987,0.4242212897593987,0.4242212897593987,92.0,92.0,92.0,92.0,1,2
0,0.004419780173966082,0.004419780173966082,0.004419780173966082,0.004419780173966082,74.0,74.0,74.0,74.0,0.0035322236249838612,0.0035322236249838612,0.0035322236249838612,0.0035322236249838612,1.9534383379287727e-05,1.9534383379287727e-05,1.9534383379287727e-05,1.9534383379287727e-05,0.7895388660264083,0.7895388660264083,0.7895388660264083,0.7895388660264083,114.0,114.0,114.0,114.0,1,6
0,0.003282213519938758,0.003282213519938758,0.003282213519938758,0.003282213519938758,60.0,60.0,60.0,60.0,0.0026552716070345783,0.0026552716070345783,0.0026552716070345783,0.0026552716070345783,1.0772377710124448e-05,1.0772377710124448e-05,1.0772377710124448e-05,1.0772377710124448e-05,0.4592803506327773,0.4592803506327773,0.4592803506327773,0.4592803506327773,96.0,96.0,96.0,96.0,1,3
0,0.003221207049287301,0.003221207049287301,0.003221207049287301,0.003221207049287301,48.0,48.0,48.0,48.0,0.002587151648705611,0.002587151648705611,0.002587151648705611,0.002587151648705611,1.0375217535335378e-05,1.0375217535335378e-05,1.0375217535335378e-05,1.0375217535335378e-05,0.4248821409365844,0.4248821409365844,0.4248821409365844,0.4248821409365844,98.0,98.0,98.0,98.0,1,4
0,0.004232672815919831,0.004232672815919831,0.004232672815919831,0.004232672815919831,58.0,58.0,58.0,58.0,0.0033940431290699537,0.0033940431290699537,0.0033940431290699537,0.0033940431290699537,1.791331943360374e-05,1.791331943360374e-05,1.791331943360374e-05,1.791331943360374e-05,0.651501439700514,0.651501439700514,0.651501439700514,0.651501439700514,95.0,95.0,95.0,95.0,1,1
0,0.0036059734407588207,0.0036059734407588207,0.0036059734407588207,0.0036059734407588207,70.0,70.0,70.0,70.0,0.0028181201793613365,0.0028181201793613365,0.0028181201793613365,0.0028181201793613365,1.3002299966340656e-05,1.3002299966340656e-05,1.3002299966340656e-05,1.3002299966340656e-05,0.5323822203443784,0.5323822203443784,0.5323822203443784,0.5323822203443784,93.0,93.0,93.0,93.0,1,2
0,0.010633467902720649,0.010633467902720649,0.010633467902720649,0.010633467902720649,66.0,66.0,66.0,66.0,0.008364529856860129,0.008364529856860129,0.008364529856860129,0.008364529856860129,0.00011304141644411597,0.00011304141644411597,0.00011304141644411597,0.00011304141644411597,1.6363791844304365,1.6363791844304365,1.6363791844304365,1.6363791844304365,80.0,80.0,80.0,80.0,1,5
0,0.00495791776866794,0.00495791776866794,0.00495791776866794,0.00495791776866794,56.0,56.0,56.0,56.0,0.003990554921298131,0.003990554921298131,0.003990554921298131,0.003990554921298131,2.457918558729987e-05,2.457918558729987e-05,2.457918558729987e-05,2.457918558729987e-05,0.7810076297184321,0.7810076297184321,0.7810076297184321,0.7810076297184321,100.0,100.0,100.0,100.0,1,4
0,0.006199370320215217,0.006199370320215217,0.006199370320215217,0.006199370320215217,77.0,77.0,77.0,77.0,0.004673155799289487,0.004673155799289487,0.004673155799289487,0.004673155799289487,3.842850513729501e-05,3.842850513729501e-05,3.842850513729501e-05,3.842850513729501e-05,1.0704357734914345,1.0704357734914345,1.0704357734914345,1.0704357734914345,103.0,103.0,103.0,103.0,1,1
0,0.005443924943581995,0.005443924943581995,0.005443924943581995,0.005443924943581995,83.0,83.0,83.0,83.0,0.0043570559173895474,0.0043570559173895474,0.0043570559173895474,0.0043570559173895474,2.9625939178292043e-05,2.9625939178292043e-05,2.9625939178292043e-05,2.9625939178292043e-05,0.9820081461729563,0.9820081461729563,0.9820081461729563,0.9820081461729563,109.0,109.0,109.0,109.0,1,6
0,0.003494708535098819,0.003494708535098819,0.003494708535098819,0.003494708535098819,70.0,70.0,70.0,70.0,0.0027046434618607285,0.0027046434618607285,0.0027046434618607285,0.0027046434618607285,1.2208881595922866e-05,1.2208881595922866e-05,1.2208881595922866e-05,1.2208881595922866e-05,0.526776490304849,0.526776490304849,0.526776490304849,0.526776490304849,109.0,109.0,109.0,109.0,1,3
0,0.007565550798576845,0.007565550798576845,0.007565550798576845,0.007565550798576845,76.0,76.0,76.0,76.0,0.005964299315088968,0.005964299315088968,0.005964299315088968,0.005964299315088968,5.7236959749443593e-05,5.7236959749443593e-05,5.7236959749443593e-05,5.7236959749443593e-05,1.2716757182417386,1.2716757182417386,1.2716757182417386,1.2716757182417386,104.0,104.0,104.0,104.0,1,5
0,0.005016593097352743,0.005016593097352743,0.005016593097352743,0.005016593097352743,65.0,65.0,65.0,65.0,0.0037080293528658436,0.0037080293528658436,0.0037080293528658436,0.0037080293528658436,2.51567153654851e-05,2.51567153654851e-05,2.51567153654851e-05,2.51567153654851e-05,0.6993187186421514,0.6993187186421514,0.6993187186421514,0.6993187186421514,107.0,107.0,107.0,107.0,1,2
0,0.01173262016699411,0.01173262016699411,0.01173262016699411,0.01173262016699411,66.0,66.0,66.0,66.0,0.00924070196267448,0.00924070196267448,0.00924070196267448,0.00924070196267448,0.00013757218692429977,0.00013757218692429977,0.00013757218692429977,0.00013757218692429977,1.8691217457749025,1.8691217457749025,1.8691217457749025,1.8691217457749025,81.0,81.0,81.0,81.0,1,5
0,0.0043976588131710535,0.0043976588131710535,0.0043976588131710535,0.0043976588131710535,49.0,49.0,49.0,49.0,0.0035555485192305526,0.0035555485192305526,0.0035555485192305526,0.0035555485192305526,1.9323454108747673e-05,1.9323454108747673e-05,1.9323454108747673e-05,1.9323454108747673e-05,0.6432299286224419,0.6432299286224419,0.6432299286224419,0.6432299286224419,91.0,91.0,91.0,91.0,1,6
0,0.008025300526816999,0.008025300526816999,0.008025300526816999,0.008025300526816999,72.0,72.0,72.0,72.0,0.006329569423530714,0.006329569423530714,0.006329569423530714,0.006329569423530714,6.440539588875807e-05,6.440539588875807e-05,6.440539588875807e-05,6.440539588875807e-05,1.3307418306888572,1.3307418306888572,1.3307418306888572,1.3307418306888572,98.0,98.0,98.0,98.0,1,1
0,0.005512625227380269,0.005512625227380269,0.005512625227380269,0.005512625227380269,58.0,58.0,58.0,58.0,0.0042028600419806725,0.0042028600419806725,0.0042028600419806725,0.0042028600419806725,3.0333402105380726e-05,3.0333402105380726e-05,3.0333402105380726e-05,3.0333402105380726e-05,0.7177765109482235,0.7177765109482235,0.7177765109482235,0.7177765109482235,91.0,91.0,91.0,91.0,1,4
0,0.0033410762215631013,0.0033410762215631013,0.0033410762215631013,0.0033410762215631013,74.0,74.0,74.0,74.0,0.0026454632080054365,0.0026454632080054365,0.0026454632080054365,0.0026454632080054365,1.1162060348556082e-05,1.1162060348556082e-05,1.1162060348556082e-05,1.1162060348556082e-05,0.5622989154432549,0.5622989154432549,0.5622989154432549,0.5622989154432549,115.0,115.0,115.0,115.0,1,2
0,0.0033773722940260605,0.0033773722940260605,0.0033773722940260605,0.0033773722940260605,53.0,53.0,53.0,53.0,0.002582749223571569,0.002582749223571569,0.002582749223571569,0.002582749223571569,1.1406642544470812e-05,1.1406642544470812e-05,1.1406642544470812e-05,1.1406642544470812e-05,0.4224392871687559,0.4224392871687559,0.4224392871687559,0.4224392871687559,103.0,103.0,103.0,103.0,1,3
0,0.0033219670936708223,0.0033219670936708223,0.0033219670936708223,0.0033219670936708223,62.0,62.0,62.0,62.0,0.0026016382417948314,0.0026016382417948314,0.0026016382417948314,0.0026016382417948314,1.1034050489670472e-05,1.1034050489670472e-05,1.1034050489670472e-05,1.1034050489670472e-05,0.5174288510368131,0.5174288510368131,0.5174288510368131,0.5174288510368131,100.0,100.0,100.0,100.0,1,4
0,0.0026468456757384076,0.0026468456757384076,0.0026468456757384076,0.0026468456757384076,56.0,56.0,56.0,56.0,0.0021064937048534925,0.0021064937048534925,0.0021064937048534925,0.0021064937048534925,7.004292834162518e-06,7.004292834162518e-06,7.004292834162518e-06,7.004292834162518e-06,0.3776151906622863,0.3776151906622863,0.3776151906622863,0.3776151906622863,95.0,95.0,95.0,95.0,1,3
0,0.004394146268172755,0.004394146268172755,0.004394146268172755,0.004394146268172755,78.0,78.0,78.0,78.0,0.003367192747909267,0.003367192747909267,0.003367192747909267,0.003367192747909267,1.9306915214468316e-05,1.9306915214468316e-05,1.9306915214468316e-05,1.9306915214468316e-05,0.7544587904589704,0.7544587904589704,0.7544587904589704,0.7544587904589704,108.0,108.0,108.0,108.0,1,1
0,0.005012595389100876,0.005012595389100876,0.005012595389100876,0.005012595389100876,72.0,72.0,72.0,72.0,0.003979987256140698,0.003979987256140698,0.003979987256140698,0.003979987256140698,2.512603981404824e-05,2.512603981404824e-05,2.512603981404824e-05,2.512603981404824e-05,0.8656471788437998,0.8656471788437998,0.8656471788437998,0.8656471788437998,111.0,111.0,111.0,111.0,1,6
0,0.005628598626491258,0.005628598626491258,0.005628598626491258,0.005628598626491258,60.0,60.0,60.0,60.0,0.00419675080203981,0.00419675080203981,0.00419675080203981,0.00419675080203981,3.16502118495211e-05,3.16502118495211e-05,3.16502118495211e-05,3.16502118495211e-05,0.7888845585351879,0.7888845585351879,0.7888845585351879,0.7888845585351879,100.0,100.0,100.0,100.0,1,2
0,0.00864372277390575,0.00864372277390575,0.00864372277390575,0.00864372277390575,65.0,65.0,65.0,65.0,0.006995682789507614,0.006995682789507614,0.006995682789507614,0.006995682789507614,7.47139301938875e-05,7.47139301938875e-05,7.47139301938875e-05,7.47139301938875e-05,1.3983271190036533,1.3983271190036533,1.3983271190036533,1.3983271190036533,90.0,90.0,90.0,90.0,1,5
0,0.0027056649687602218,0.0027056649687602218,0.0027056649687602218,0.0027056649687602218,50.0,50.0,50.0,50.0,0.00221936221851687,0.00221936221851687,0.00221936221851687,0.00221936221851687,7.320329067359783e-06,7.320329067359783e-06,7.320329067359783e-06,7.320329067359783e-06,0.38439117062485756,0.38439117062485756,0.38439117062485756,0.38439117062485756,104.0,104.0,104.0,104.0,1,3
0,0.006602203317175985,0.006602203317175985,0.006602203317175985,0.006602203317175985,59.0,59.0,59.0,59.0,0.0052037566266462535,0.0052037566266462535,0.0052037566266462535,0.0052037566266462535,4.3588759678774995e-05,4.3588759678774995e-05,4.3588759678774995e-05,4.3588759678774995e-05,0.8762728806879369,0.8762728806879369,0.8762728806879369,0.8762728806879369,94.0,94.0,94.0,94.0,1,2
0,0.005728180927354413,0.005728180927354413,0.005728180927354413,0.005728180927354413,61.0,61.0,61.0,61.0,0.00429951824592746,0.00429951824592746,0.00429951824592746,0.00429951824592746,3.279418997374477e-05,3.279418997374477e-05,3.279418997374477e-05,3.279418997374477e-05,0.8439468047372807,0.8439468047372807,0.8439468047372807,0.8439468047372807,97.0,97.0,97.0,97.0,1,1
0,0.00428738529253258,0.00428738529253258,0.00428738529253258,0.00428738529253258,56.0,56.0,56.0,56.0,0.003435779929288234,0.003435779929288234,0.003435779929288234,0.003435779929288234,1.838034513370077e-05,1.838034513370077e-05,1.838034513370077e-05,1.838034513370077e-05,0.6041060172089052,0.6041060172089052,0.6041060172089052,0.6041060172089052,96.0,96.0,96.0,96.0,1,4
0,0.008279950273152587,0.008279950273152587,0.008279950273152587,0.008279950273152587,73.0,73.0,73.0,73.0,0.006629684856106472,0.006629684856106472,0.006629684856106472,0.006629684856106472,6.853990860773685e-05,6.853990860773685e-05,6.853990860773685e-05,6.853990860773685e-05,1.3019611649867595,1.3019611649867595,1.3019611649867595,1.3019611649867595,86.0,86.0,86.0,86.0,1,5
0,0.005635405259285261,0.005635405259285261,0.005635405259285261,0.005635405259285261,72.0,72.0,72.0,72.0,0.004428152832779749,0.004428152832779749,0.004428152832779749,0.004428152832779749,3.1740814352683056e-05,3.1740814352683056e-05,3.1740814352683056e-05,3.1740814352683056e-05,0.9741722477489383,0.9741722477489383,0.9741722477489383,0.9741722477489383,108.0,108.0,108.0,108.0,1,6
0,0.0029753427375202915,0.0029753427375202915,0.0029753427375202915,0.0029753427375202915,46.0,46.0,46.0,46.0,0.002267869019526553,0.002267869019526553,0.002267869019526553,0.002267869019526553,8.848700685731986e-06,8.848700685731986e-06,8.848700685731986e-06,8.848700685731986e-06,0.36406998190182815,0.36406998190182815,0.36406998190182815,0.36406998190182815,87.0,87.0,87.0,87.0,1,3
0,0.010226992281346343,0.010226992281346343,0.010226992281346343,0.010226992281346343,69.0,69.0,69.0,69.0,0.008036349583756798,0.008036349583756798,0.008036349583756798,0.008036349583756798,0.00010457944572811424,0.00010457944572811424,0.00010457944572811424,0.00010457944572811424,1.5702355564151171,1.5702355564151171,1.5702355564151171,1.5702355564151171,83.0,83.0,83.0,83.0,1,5
0,0.011581976891036346,0.011581976891036346,0.011581976891036346,0.011581976891036346,54.0,54.0,54.0,54.0,0.008427552249052195,0.008427552249052195,0.008427552249052195,0.008427552249052195,0.00013413706898111845,0.00013413706898111845,0.00013413706898111845,0.00013413706898111845,1.474119849786221,1.474119849786221,1.474119849786221,1.474119849786221,78.0,78.0,78.0,78.0,1,2
0,0.006722690676504937,0.006722690676504937,0.006722690676504937,0.006722690676504937,78.0,78.0,78.0,78.0,0.005394256385907305,0.005394256385907305,0.005394256385907305,0.005394256385907305,4.518875291568112e-05,4.518875291568112e-05,4.518875291568112e-05,4.518875291568112e-05,1.2437876539284294,1.2437876539284294,1.2437876539284294,1.2437876539284294,113.0,113.0,113.0,113.0,1,1
0,0.007803012073258953,0.007803012073258953,0.007803012073258953,0.007803012073258953,59.0,59.0,59.0,59.0,0.006181233575381932,0.006181233575381932,0.006181233575381932,0.006181233575381932,6.0879235980945916e-05,6.0879235980945916e-05,6.0879235980945916e-05,6.0879235980945916e-05,1.1254153370645206,1.1254153370645206,1.1254153370645206,1.1254153370645206,89.0,89.0,89.0,89.0,1,4
0,0.004191273443002638,0.004191273443002638,0.004191273443002638,0.004191273443002638,78.0,78.0,78.0,78.0,0.0033371422264578,0.0033371422264578,0.0033371422264578,0.0033371422264578,1.7555511489225368e-05,1.7555511489225368e-05,1.7555511489225368e-05,1.7555511489225368e-05,0.7441519768068374,0.7441519768068374,0.7441519768068374,0.7441519768068374,99.0,99.0,99.0,99.0,1,6
0,0.011039667940261932,0.011039667940261932,0.011039667940261932,0.011039667940261932,65.0,65.0,65.0,65.0,0.008496728080349037,0.008496728080349037,0.008496728080349037,0.008496728080349037,0.00012187380747919786,0.00012187380747919786,0.00012187380747919786,0.00012187380747919786,1.7734780967207122,1.7734780967207122,1.7734780967207122,1.7734780967207122,87.0,87.0,87.0,87.0,1,5
0,0.009602698536261464,0.009602698536261464,0.009602698536261464,0.009602698536261464,65.0,65.0,65.0,65.0,0.007090323783723651,0.007090323783723651,0.007090323783723651,0.007090323783723651,9.221176071766299e-05,9.221176071766299e-05,9.221176071766299e-05,9.221176071766299e-05,1.3762608008990957,1.3762608008990957,1.3762608008990957,1.3762608008990957,89.0,89.0,89.0,89.0,1,2
0,0.002781162334319937,0.002781162334319937,0.002781162334319937,0.002781162334319937,67.0,67.0,67.0,67.0,0.0022322691801861627,0.0022322691801861627,0.0022322691801861627,0.0022322691801861627,7.734301248538524e-06,7.734301248538524e-06,7.734301248538524e-06,7.734301248538524e-06,0.42801473887224784,0.42801473887224784,0.42801473887224784,0.42801473887224784,106.0,106.0,106.0,106.0,1,3
0,0.004138149673109725,0.004138149673109725,0.004138149673109725,0.004138149673109725,83.0,83.0,83.0,83.0,0.003199985151758531,0.003199985151758531,0.003199985151758531,0.003199985151758531,1.7114327303900196e-05,1.7114327303900196e-05,1.7114327303900196e-05,1.7114327303900196e-05,0.7939878709766913,0.7939878709766913,0.7939878709766913,0.7939878709766913,116.0,116.0,116.0,116.0,1,6
0,0.0071740688855659145,0.0071740688855659145,0.0071740688855659145,0.0071740688855659145,75.0,75.0,75.0,75.0,0.005424133589233347,0.005424133589233347,0.005424133589233347,0.005424133589233347,5.146691841483527e-05,5.146691841483527e-05,5.146691841483527e-05,5.146691841483527e-05,1.3284149266135787,1.3284149266135787,1.3284149266135787,1.3284149266135787,112.0,112.0,112.0,112.0,1,1
0,0.0034807584581663157,0.0034807584581663157,0.0034807584581663157,0.0034807584581663157,62.0,62.0,62.0,62.0,0.0026705069616439108,0.0026705069616439108,0.0026705069616439108,0.0026705069616439108,1.2115678301222746e-05,1.2115678301222746e-05,1.2115678301222746e-05,1.2115678301222746e-05,0.47018463854841397,0.47018463854841397,0.47018463854841397,0.47018463854841397,110.0,110.0,110.0,110.0,1,4
0,0.0029289712609904235,0.0029289712609904235,0.0029289712609904235,0.0029289712609904235,56.0,56.0,56.0,56.0,0.0022720327927463367,0.0022720327927463367,0.0022720327927463367,0.0022720327927463367,8.578474505080305e-06,8.578474505080305e-06,8.578474505080305e-06,8.578474505080305e-06,0.4187780625466429,0.4187780625466429,0.4187780625466429,0.4187780625466429,102.0,102.0,102.0,102.0,1,3
0,0.0033907316518391765,0.0033907316518391765,0.0033907316518391765,0.0033907316518391765,55.0,55.0,55.0,55.0,0.0026281323274816807,0.0026281323274816807,0.0026281323274816807,0.0026281323274816807,1.1496995340555382e-05,1.1496995340555382e-05,1.1496995340555382e-05,1.1496995340555382e-05,0.47731473959262394,0.47731473959262394,0.47731473959262394,0.47731473959262394,95.0,95.0,95.0,95.0,1,4
0,0.003852689302312841,0.003852689302312841,0.003852689302312841,0.003852689302312841,69.0,69.0,69.0,69.0,0.0030039940456227316,0.0030039940456227316,0.0030039940456227316,0.0030039940456227316,1.4829283917133976e-05,1.4829283917133976e-05,1.4829283917133976e-05,1.4829283917133976e-05,0.6390199008469689,0.6390199008469689,0.6390199008469689,0.6390199008469689,103.0,103.0,103.0,103.0,1,6
0,0.008589927981521524,0.008589927981521524,0.008589927981521524,0.008589927981521524,65.0,65.0,65.0,65.0,0.006568672982911456,0.006568672982911456,0.006568672982911456,0.006568672982911456,7.378668653818196e-05,7.378668653818196e-05,7.378668653818196e-05,7.378668653818196e-05,1.3096426529524596,1.3096426529524596,1.3096426529524596,1.3096426529524596,100.0,100.0,100.0,100.0,1,5
0,0.012495608233989524,0.012495608233989524,0.012495608233989524,0.012495608233989524,67.0,67.0,67.0,67.0,0.008525228423379527,0.008525228423379527,0.008525228423379527,0.008525228423379527,0.00015613983989301057,0.00015613983989301057,0.00015613983989301057,0.00015613983989301057,1.5889948760439223,1.5889948760439223,1.5889948760439223,1.5889948760439223,83.0,83.0,83.0,83.0,1,2
0,0.007639239735169618,0.007639239735169618,0.007639239735169618,0.007639239735169618,79.0,79.0,79.0,79.0,0.0061973827154810455,0.0061973827154810455,0.0061973827154810455,0.0061973827154810455,5.8319200608898154e-05,5.8319200608898154e-05,5.8319200608898154e-05,5.8319200608898154e-05,1.465754004498558,1.465754004498558,1.465754004498558,1.465754004498558,117.0,117.0,117.0,117.0,1,1
0,0.004489230435160072,0.004489230435160072,0.004489230435160072,0.004489230435160072,62.0,62.0,62.0,62.0,0.0034254795907892243,0.0034254795907892243,0.0034254795907892243,0.0034254795907892243,2.01522080664911e-05,2.01522080664911e-05,2.01522080664911e-05,2.01522080664911e-05,0.6579138393875263,0.6579138393875263,0.6579138393875263,0.6579138393875263,90.0,90.0,90.0,90.0,1,2
0,0.00533092781697356,0.00533092781697356,0.00533092781697356,0.00533092781697356,68.0,68.0,68.0,68.0,0.004176183715229563,0.004176183715229563,0.004176183715229563,0.004176183715229563,2.8411787655588826e-05,2.8411787655588826e-05,2.8411787655588826e-05,2.8411787655588826e-05,0.9651656966306452,0.9651656966306452,0.9651656966306452,0.9651656966306452,103.0,103.0,103.0,103.0,1,6
0,0.006519037791755994,0.006519037791755994,0.006519037791755994,0.006519037791755994,62.0,62.0,62.0,62.0,0.005356727549121449,0.005356727549121449,0.005356727549121449,0.005356727549121449,4.2497766557720264e-05,4.2497766557720264e-05,4.2497766557720264e-05,4.2497766557720264e-05,1.0367633139778445,1.0367633139778445,1.0367633139778445,1.0367633139778445,86.0,86.0,86.0,86.0,1,5
0,0.0029186216256897814,0.0029186216256897814,0.0029186216256897814,0.0029186216256897814,62.0,62.0,62.0,62.0,0.002357195945337545,0.002357195945337545,0.002357195945337545,0.002357195945337545,8.514287780123015e-06,8.514287780123015e-06,8.514287780123015e-06,8.514287780123015e-06,0.4251608751742336,0.4251608751742336,0.4251608751742336,0.4251608751742336,105.0,105.0,105.0,105.0,1,3
